1.474278008442691,-39.46113348364407,-73.43673898704495,-91.75988013389318,-116.41731621691682,-140.814074472361,-148.8850669449121,-160.36537558334794,-182.29734632314046,-191.5203279886469,-193.0280652639903,-201.20271955894225,-193.12425892223473,-159.3840020696818,-122.3989780736573,-76.17273967054875,-7.075216561575729,58.466063219111106,105.40033091297131,150.72166632072248,186.39641186012224,198.0827146914686,209.0684412039667,227.44652542924624,228.28081893259383,217.09764073114246,212.92445489914817,198.82936781482158,167.9219697097787,140.14818850509613,104.90706588671037,44.3846531381613,-16.53878890458259,-62.82036076377772,-112.77112265370448,-159.43161674479953,-188.89012943251507,-225.57167957485552,-276.35635793959415,-311.11200721867357,-329.02011885373986,-344.8294017545872,-345.15979226974554,-336.0146359049735,-348.04181249567154,-368.6556676641444,-367.4092251543443,-353.4523409050811,-333.1040138421262,-292.2540527198994,-246.23981716372856,-212.2691716097954,-167.4563460107523,-106.63525348426538,-59.214686761113036,-24.877986357013008,12.084674963213587,38.35314018749756,53.74560613698992,80.44195519075268,106.11778283038375,109.13952666970701,107.68714888245495,112.25570849463926,105.52730755965482,94.73202477349757,94.92263509485672,88.35531284701615,68.31857103025195,54.63518080108768,42.42632864383615,20.804823391793946,14.392109135413435,32.99131571258666,49.82688694765163,60.16294915426005,72.17614807490662,68.3405618513562,50.6218817204065,49.58307659699872,62.543059924716125,70.94168539676537,87.36514403780194,116.3656932897269,140.0095858925566,167.57674949811783,215.94508960869254,265.1065379382694,299.72957386652917,330.57079960667255,348.97968911099264,343.58649381037856,337.5665204250213,340.70728405957044,333.39850239053976,321.62859853361783,320.5225669071847,311.9992125579586,286.72334313922124,260.36831053633233,225.7061411716956,171.98138034277235,124.8939754765238,98.25217882070291,72.4806110799459,48.99783300987405,40.183531926080384,29.419505194047446,13.766486233406098,17.699803226776083,34.16960834457998,39.392093136603876,40.230505641981146,36.53592077700303,11.273986678856737,-16.774526922200597,-21.33917537403539,-17.53023215659179,-13.711374577100088,8.50766469152153,42.559461934823304,73.93210557761029,117.70206482514864,170.32120403701043,199.84478812787057,210.09290280279478,223.68466486726777,231.1883203016891,230.5054643259683,240.8468936168262,247.8870008082198,226.37373785881988,191.1784027948637,155.35007336217072,109.89645941302473,69.94724888197561,51.42221242656798,29.015614191206467,-12.707669188274279,-55.52923294182303,-98.56797856572786,-146.89111823964106,-177.74514742302438,-187.03227965273965,-200.44656296453326,-215.35286900594502,-217.39291646512737,-223.5197051071624,-238.63776177634477,-242.77450108507355,-244.43484214059163,-257.6025423714525,-259.53809440485804,-240.60887823766575,-219.94369474606097,-191.3396176999739,-142.71999760589406,-95.35924289603003,-56.6637978475046,-9.265107085597847,33.610754088105885,52.13842346778338,66.11561203354825,88.52236167611646,105.49442499948813,123.79934648127059,150.2286891287454,155.07335021748744,128.64493874976233,100.95462545802874,77.4425544975227,47.323913628255845,25.947869719462535,12.347159691839916,-19.038087292235044,-56.731687446133904,-75.17071410636275,-86.62436847747814,-97.28517570489302,-89.23349210992382,-72.90297906160416,-67.03214278298066,-54.64720489107924,-29.727096364634477,-15.455427531051509,-8.510739240797733,6.005038777241531,11.917763250272921,6.537772554057182,14.874949890937847,32.89054917151412,44.885396838799025,67.98228395929002,106.30533391876567,132.40833586869508,144.94894874210493,155.87097168247055,149.0680662985117,126.44353310046318,116.75987413918767,111.54167177961034,85.66570713823145,50.652657776888255,15.302414667244744,-33.839315832085106,-84.64516374534725,-119.3521483877737,-158.2624128690891,-211.2555669511164,-255.13465015265155,-290.10038139859904,-328.9032566899829,-353.9054575699517,-359.7555515381889,-369.34689650589775,-378.50472932566,-372.4246842948528,-369.2389265177933,-375.649502177142,-370.4880409809506,-359.00459723057094,-356.3235908181275,-344.6648499156827,-317.9999665207648,-298.5040210859433,-280.38245036276606,-244.11115186650176,-203.5004977919784,-168.3840802290003,-125.1308408241537,-85.615489100346,-69.92039363441103,-58.37613724653861,-37.627276290963806,-27.377105505014256,-24.691389548985327,-14.466598378918732,-13.675592492365551,-27.002071094064895,-31.78069136895155,-36.867901843388985,-61.401585669811844,-84.0221668831025,-91.35820412983273,-102.17186529799628,-112.77358710841482,-111.12403060530497,-116.3254927329353,-130.39545686033307,-127.12126413195051,-114.21285508410858,-114.61928641243685,-116.38979502382129,-113.18368957676608,-120.6157400142627,-125.55815238095886,-109.85789671240008,-94.22816900436068,-86.75111954496063,-65.94352783780866,-39.32546495504881,-24.311574545863493,-3.3494758264651256,29.42007028255134,53.777011058288956,78.86348089942106,120.32228008346716,154.88102639431875,169.23070178217912,178.97895531446443,177.75317623909572,157.35339414566135,144.0964716514672,146.04359356117067,138.4562170439865,121.91815595142194,109.08381010337325,88.04648973584912,62.5650643728749,55.17706266102321,52.78060513158111,33.77713760626622,14.628794585523721,4.919536893228163,-9.1730774811829,-17.366151642607896,-8.04789719519065,-5.009424226168378,-16.732542109292247,-23.59834455152877,-32.73992810966126,-54.29804720820533,-61.253179069172496,-45.18209803351904,-31.1453503900189,-16.77280957583411,10.364204772664653,33.598472599583665,53.151119384149716,91.27304970969449,133.95978334291152,158.64147757175095,183.7537372147336,218.8542251025202,241.99678678747864,253.23463263169694,260.905085530434,246.19389919830928,211.559756384707,188.72011216869532,174.34715855534193,148.45258935397652,125.83993752437856,115.12727424937009,98.4906267413059,80.52576915929417,71.12526087243947,47.72425149366085,5.946672811889822,-22.958733271367958,-35.91923534862813,-49.9790576301901,-53.524217745987684,-43.2947843650881,-41.923242196624855,-44.582902634036394,-35.69889094054209,-33.09563223987324,-41.865087993357584,-37.55143862107236,-23.774965982017854,-16.549304325496358,-0.25419974478790675,29.71895680151778,52.2006074345735,72.33495484675103,103.05047730343966,124.79701211473676,132.47321966277272,149.3066188484784,167.9218153973689,168.4702347301036,166.12765817837726,166.55718492042024,149.2087716825997,123.27928443611637,109.07686666448268,91.12845581020096,64.48848984189274,53.22493289864416,50.00657003390264,32.35443479211108,14.337968645295437,3.741318893779752,-17.408361514714493,-39.04904298569554,-42.632152491394365,-46.634877835718015,-59.023556183705054,-57.912408893661166,-48.39155592152003,-48.9259734218311,-46.7591217660911,-36.6741798050244,-33.873108271095525,-25.819637761450423,2.058447167368641,25.19478295636139,31.353763837934096,39.44947432387698,46.559429682373036,42.076866230803844,43.30066964168944,52.66076719998212,49.66375300509897,44.18158901648734,52.360656298521164,52.96098767073326,38.09794029913329,31.81968818971041,31.418955649405007,21.366527071813746,16.3977285609667,19.006015584227672,7.709148590426492,-7.122037440860059,-6.243989915660948,-8.726807271084283,-21.804471395664727,-22.094996205656933,-15.050715761889617,-18.27973743136194,-17.359386263957408,-9.54365320979034,-18.119325622199487,-39.802145391614054,-52.23609340896982,-58.03021512318809,-65.61871124824066,-60.501564575866695,-42.545769957248794,-40.705201113266114,-51.21613388503664,-36.17555093348925,3.4695644862744306,42.27131856587926,81.17329697711335,108.80270757357958,99.31304176517565,76.44162203206851,74.62676084725373,74.10435378177893,55.41357698723072,34.10832756544239,12.008526384879005,-12.393831436442067,-13.804568571579985,9.360722908672225,24.86075479906985,30.145283546907677,40.26033902084672,44.83965841150801,42.05895208772874,40.18352134368235,24.62978058101347,-0.9708040389361878,-8.39008291544332,-0.8778693078160766,6.3551423418993505,15.197275591419903,14.75952118459638,-1.1318219913611616,-8.191115186632462,-2.035647796420782,-5.6957969811334515,-12.8810603896433,-8.083897984123144,-7.386850150347876,-15.001137040722854,-13.36509548687373,-13.793624274025378,-30.87397656819174,-42.773101399096284,-41.92698436275226,-48.65853202860451,-55.05666386771001,-45.6035997668668,-40.59371338056866,-48.40036952822055,-48.967245878976115,-48.026548000105386,-58.97446448564174,-63.71958752386063,-59.14519700437398,-65.74019958781024,-71.95775478740498,-60.46835119874007,-51.00547042236043,-51.093292198121866,-43.1807802209325,-36.77422928877994,-45.04702512772049,-46.88307761360429,-37.2113418159199,-37.90851370883981,-41.07695949166097,-31.4780006643702,-28.139737732196018,-35.76865877139508,-32.68467838568793,-26.00185644038639,-30.602086222631886,-28.765285083234986,-16.577943390120915,-15.179789646255019,-16.06497484860312,-3.603822148775447,2.948136120365672,-2.2353821337800337,1.2997589893307961,5.521812985417625,-4.14511510589037,-8.10068388807673,-1.0245169240702308,-3.4076869968439607,-6.175532675618411,4.740774969939429,7.164970843606291,-5.3714179615883815,-10.818201194150811,-14.530852908336296,-28.535136739514563,-33.93282130904595,-28.894251599794345,-37.12192611449095,-50.79732587588509,-52.75006595595054,-58.940057529977565,-72.3370361812762,-72.78171527119342,-70.90757305952204,-82.47255157591833,-87.76394824178774,-81.78148749723701,-85.1352109498541,-89.4374362533016,-80.64451193888112,-77.97038675078647,-84.96584587575595,-80.30827095857975,-73.33650200628188,-78.3647983234126,-73.80034171477125,-54.927453461048216,-45.725894924316286,-40.622985432198114,-26.62462261727122,-23.195600558141564,-32.193705402037295,-29.44112225624368,-23.836950611295578,-31.809762121244002,-30.954585066563325,-11.124911651989752,6.760278820960249,25.937214639378944,55.961648259518654,74.14441926685518,76.42109221310122,88.94540014755862,106.1112550926883,110.14491971857318,117.44004738828299,132.04358201407211,131.62499985728073,123.63267108015768,124.10156508421066,116.10204343701703,98.58871713663439,95.86273095447049,97.55981363537799,82.56443252808737,66.20765947116799,54.407480347499785,30.13925267387316,5.66071646971829,-1.2977941726157254,-8.435742787690751,-19.724584060793024,-12.645401299251686,4.634478560381822,13.870596243134496,29.716829740007462,53.678746343594085,64.26377072136039,72.05742620849121,93.90502662087569,110.45123329140156,116.04966198841281,130.95000407065848,145.11313810838857,140.42545900361523,133.47548370133103,129.26172248759815,109.35388690715612,85.51203500145182,75.35046097725164,59.37128976320865,30.004715729271894,7.48155362062058,-14.001665274938645,-47.35947820533679,-73.75364033471105,-89.75547331300942,-116.75527955117374,-144.09500539287654,-152.68033510279497,-158.94745055502847,-168.16284197206886,-162.28814740835378,-153.24848688901488,-157.46003677013903,-153.49224547724515,-132.9631626640351,-114.26476372014875,-87.44497844590414,-38.90286247502737,6.33886210368626,36.87485374853857,70.4675479524564,98.50952603547101,106.57814527030189,113.67996905141274,123.30162611349738,113.84290785540459,96.2185958886555,90.15225128424017,79.0302039691353,56.71646226549532,42.66634161170762,29.496449648818206,4.575332586959273,-10.204740016795176,-9.4357372789283,-18.156025369821887,-32.310204465744995,-37.00778717845289,-50.2951262575594,-76.92178140512554,-95.50308944489281,-114.50923506008691,-149.10273240681607,-176.5249108342021,-185.98717184868696,-194.788827360119,-192.13539239357684,-159.49757545921238,-114.18819612923419,-63.56660049585117,6.846679723814329,78.57678516335459,126.78440327330298,167.5265381187171,208.1314309264123,229.90927725249614,241.86317594129613,258.5220842809108,259.6320033734047,241.3518243078801,227.51629645797283,210.57226800511842,174.03945898129604,136.1073451432145,102.25190310756065,53.44975431204813,2.226236184493276,-29.971017457184164,-57.710967705255875,-85.75641831559314,-95.67394873302891,-100.13055911512407,-119.57168005839729,-137.58100461876734,-149.01948886644632,-175.1769872099504,-206.58657896325275,-221.88861042616378,-232.23607307882972,-237.52511771154602,-215.87181546602554,-179.51960086917938,-149.3491262652532,-108.67287625436285,-52.88495016318552,-5.040899841627799,39.31923721425755,91.46051177159178,130.86920245159746,153.97894298278118,182.0923745312488,204.10561497238308,200.94192014512674,189.6670973400957,178.17659018468805,152.1265032237472,125.06047300710321,113.43931701965883,95.22680273136406,61.275100140407496,32.669435067048866,5.101355965296993,-32.625596578012846,-58.943476319836904,-69.61870284353003,-89.09330607651474,-111.28182846512772,-121.78405459693923,-141.925041047418,-179.4764843527891,-212.72227847569374,-244.25574426030025,-280.6577920372209,-293.65208208576183,-272.4152006506846,-239.54204872753405,-193.01975057471412,-124.18898584372577,-59.08181890046127,-8.497852179176823,46.72398747504959,98.83810658700546,132.8257863943874,166.51487433845108,202.13556929687857,216.69291831328832,219.32086795926156,227.34588154115903,223.50533663706528,204.25616071624697,190.71870176935073,173.61086354810266,137.8704197347086,103.83264760747015,77.09586312732365,38.20001152257382,-0.39721660319136554,-20.124242426119956,-40.16546990575614,-66.9304763503397,-80.33436097861286,-90.17248891356624,-114.32130214837008,-135.45619186579785,-148.06183917379786,-171.12336448535214,-192.10395309971778,-189.00107972573124,-176.4493831580428,-160.52823601477147,-121.94815109028639,-69.21650945261865,-21.373390128684157,32.09451132472578,87.15946513190016,117.42530504415294,132.70713203749943,155.7266471910154,173.65965069527067,180.0588889626009,188.92578207340256,187.98170625257598,164.9888459083562,143.50804561822275,129.00923846671142,98.43200255726322,59.42185183851698,30.444086486183146,-1.0127846471097506,-35.13322774104803,-51.33113656554505,-60.883339006699046,-81.05431009470931,-93.33212774537442,-93.21601999893073,-103.10040692325606,-115.88089330840221,-116.34907113834167,-123.15781644822478,-140.8873372718409,-147.79949775756407,-151.3947841857566,-164.95066650767916,-164.4256705605602,-138.38086518281253,-103.82751874614277,-53.98437539682834,19.032816600574343,86.68065763295836,136.87564809316027,186.7328489754612,224.66972731267447,231.6737743934609,225.74729773667252,216.16546820988208,190.586456749008,166.57382805824398,162.1661564753729,152.8578139127828,127.83240785916676,106.42158977296421,80.94212549698537,38.0273316858041,-2.1718203368556566,-35.48042485275162,-82.31855355171872,-130.47796145422132,-158.63046126880323,-179.00673301716154,-192.5626186785247,-180.53790038061192,-157.69683155648886,-146.06759370167458,-132.55490065449786,-116.10477449430849,-118.2439377844751,-128.4794422862979,-127.51688213280342,-126.58386501159318,-119.3923838979478,-78.4251593055098,-17.196231329352425,35.65968791577794,85.11140336315066,127.45880246748061,143.76706062974182,153.14962724626656,179.50771847837296,203.5974836635166,215.43108512165355,232.10377424177773,-89.84685833727862,-94.02734425833489,-84.97518844227339,-61.17625200501112,-46.371714542010025,-32.84183168103343,-8.224255181027216,7.181125608746083,13.643531487713544,36.77477008771709,66.1255816765146,81.35741676384305,94.90325859145868,104.49801221055627,90.3334515895543,71.50999346676859,70.28807463874877,65.5843853882793,48.41741650480865,36.933305914043736,23.07533923215998,-2.008193489036591,-14.734723333101828,-14.305745068676076,-26.32058657265044,-42.49684257137657,-47.087092956655994,-57.27627758632858,-74.77432057276518,-78.8287931901514,-79.8090657460248,-92.22324353134195,-96.97423498963087,-92.8351156588683,-102.28592592545992,-112.71974637564898,-104.45528436313862,-93.79990130960478,-82.77264517026606,-52.1271429466814,-17.59297969843577,1.0450049523861435,21.557356707906987,45.97695084250745,53.86495625397275,58.92358688795756,77.38716682229317,88.418462167066,89.27580162161233,100.893755055996,109.68094791113887,97.61064225458315,83.59240768023201,72.73774297458117,49.52027629400948,29.91077909758871,28.35104407570329,20.03282084363802,-1.5320662932920461,-14.871693338093642,-27.328577499140643,-50.285222814861676,-64.12372195693844,-68.89738197733548,-86.62619599502713,-105.0243881273424,-107.19383354279856,-111.92507858326528,-123.44424652242556,-122.72629416065594,-120.87452886379835,-130.83267826327275,-129.17102214331274,-110.2672597390852,-94.59888767177034,-73.2682173927904,-35.73343012354047,-5.127761339016152,14.711054442276074,42.860205063001295,66.88413672906327,73.6177001185514,84.66216051728188,103.45747315077062,109.96239661480371,112.80195940623473,121.86057447913784,116.92860044097928,99.77117449558665,94.46787485649557,90.11037765010013,71.24877634123867,56.53387922644467,48.558350205551484,29.51113614736235,12.03680688802407,8.288820015906845,-3.083972833129482,-22.61180904142533,-26.554000225493247,-24.665794452206555,-32.69153847443122,-34.03981752971954,-29.577170944000457,-40.4379957129815,-52.37602904447229,-47.70511950452992,-44.56792378556885,-43.80563846702367,-23.596495408093567,4.107928113796807,22.563433211549658,48.01948548039233,78.69045069633705,92.54495426303328,102.89433875114196,125.95436724478297,141.89580763675178,147.0374761727892,159.94812935989353,169.3928513483521,163.6337696565108,163.71464803210273,170.47568121189624,161.48405652417964,146.5707433642073,140.24257916497916,125.35272339433776,101.45041710833786,88.78271393095356,75.6525582807413,48.92519194031696,33.480682544378865,36.985652726715635,37.950591245672385,42.86969382669705,60.966952128277754,67.56580038134734,62.22541439960158,73.40477732044133,89.95464932516975,88.79188716627709,85.28109845905601,84.8143175800789,72.43811107345016,66.25842766732366,83.33094615883863,95.87059413987114,92.16407270405321,93.86977058077848,96.18249432839707,87.71477205867158,87.06703782264285,93.82904510581935,85.86836794530396,74.64891336983361,75.44887932254179,69.20924115136353,53.00876933270103,46.519999984331065,38.80858935293867,15.596923654730787,-3.3928812478467285,-13.492957769418226,-31.89543074637479,-46.85620919141006,-46.83221549705131,-55.5935371984299,-76.58713345277704,-84.75546512564225,-86.69576122880807,-98.040509771208,-103.03200929558732,-100.0385315884116,-105.96319933825669,-106.2110362795464,-87.65246912352592,-74.19935240081949,-71.96967246967132,-61.3558060190245,-50.06962935420289,-48.642945772859875,-38.5810849875818,-20.852061579069463,-15.975106737251629,-10.985520317561072,8.311682462804251,20.462184022903056,21.433991400073776,29.811528672629795,32.969219532448044,18.566413801781724,10.156049531001301,11.174630084570953,0.3793243772355437,-11.624034004756982,-11.900640929150097,-19.923534957693644,-34.55452236714333,-33.463077187322924,-28.99379749531191,-36.16450341346506,-36.9290898948707,-32.12898158862497,-42.503398738080314,-55.04588473641393,-54.7539734986093,-58.86807950537639,-65.81875241017588,-55.53105118443432,-43.798983227172734,-48.27998814546338,-48.96603294259977,-41.27374482520019,-42.58104315736228,-39.26760296821171,-19.573153047472907,-8.91706779652078,-11.429142868827583,-5.346073092733712,-0.4283049496702587,-6.8876743703884795,-1.400505699984751,16.27613011273144,21.188315036874048,19.773481652713535,21.759438269368598,9.613363825010907,-9.826421825167953,-9.536945055837158,-1.001549974053169,-3.2132578261032885,-2.946425817738147,-0.9039643125179846,-13.272792748818016,-22.055713735187446,-10.850666485259541,-2.362411282817373,-3.384233643749641,2.69628448129014,4.343876679885556,-7.957834288476029,-10.586968826739582,-3.22397971509139,-10.521279228684186,-22.224174474108537,-21.031269780516396,-22.01608083500145,-23.781044168799237,-6.576431272353962,12.805101166216865,15.831801529083753,21.987024647405654,34.10672918355367,32.62517289128196,30.67857989199304,43.61088127570242,51.35094952093966,50.11848808097571,57.396319616735354,60.03872611642562,45.160490950582286,33.97106736298305,29.621189475658355,14.395707717722377,0.9967774237345495,1.8210576184170049,-3.933056220420177,-18.464701371101526,-21.752018799139393,-23.292051750740008,-34.34036074054742,-36.34603864684346,-31.5217719872713,-42.812022994052434,-58.06493311106931,-60.31274011681784,-65.8753841508776,-74.03057031498335,-63.90605711605379,-49.36569144831,-47.43274776011693,-40.360449141460755,-27.4578318926499,-27.742806547199862,-25.632200269404294,-3.8320988205602857,17.96580357534673,33.733219909609744,56.6437515524278,70.9434925134369,65.03299398479187,63.77326104581179,72.5263905477471,71.05672526819293,66.56947275544648,68.38475556273781,58.82469440485083,42.05382641787854,39.49802953136703,36.78153638888941,18.25831006115299,2.462398807436522,-8.13656945917842,-29.048411888713687,-44.80161558571755,-42.268484454964685,-43.00469559906175,-49.40868874169784,-42.78272674323907,-37.60529750168352,-49.01523215167884,-55.8962444223067,-54.04878428200524,-59.77877792687115,-57.89828531643271,-35.873842170942694,-17.95482551850885,-9.205371650204384,9.192972200493637,26.240507652212187,30.13737310859353,40.27535318301243,54.163071405392145,49.466547718406204,40.790400594938056,44.473740120050735,41.501164189300646,30.782239028473576,30.051153133395403,25.026344352598,4.764062204732563,-7.639045921000786,-11.187998882977006,-27.118496238303944,-44.02899711620378,-49.11743696754657,-61.335325053733,-78.63900873938739,-79.64898455447303,-79.33730910044738,-93.04754835782529,-99.66457425777428,-96.984874085533,-103.98834058792656,-107.84435361797671,-98.35584149393314,-99.0804171472196,-108.5112655563996,-100.28365157037436,-83.37362391484932,-73.21749831545637,-54.572467601721996,-29.545240450856248,-17.99312595854384,-5.744979926971556,21.7964832494683,44.554241067308794,59.74583604684753,84.31216890977572,103.65670082227658,102.85377965728125,100.28314024466087,98.29200823821904,81.853952198055,66.29366634083783,63.71172047217989,52.71395534221945,32.56217843178641,24.09523486934118,16.06343066822516,-3.6248332171882236,-14.801147816226024,-18.406512459737506,-36.1571778221053,-54.348642612394116,-56.44991393551084,-60.31348589867197,-67.04357577583482,-60.152636306605174,-58.51949114399875,-79.26385925318023,-98.95907785050163,-109.67391448597846,-125.81288484023348,-132.60878685650118,-118.48747471062109,-105.99679009503146,-95.13466856691434,-64.35556197662592,-27.479356390225153,-0.7734122401747126,32.164010257692446,68.77486981687316,88.14556883640653,102.76558764007395,124.02068969090965,130.22227148438563,122.16715523012621,123.81916058350265,125.71397236928081,114.16095713589063,105.98067466637289,99.35952081085522,75.4018331732268,51.1034949556192,42.85285504548917,29.752971692036372,9.67065052770346,2.7015145873671726,-3.139920556715611,-19.868786635522287,-27.32288081201025,-27.008659442401772,-39.818668765472296,-51.05916887006929,-45.93739907505209,-45.117399368647625,-49.60091372380948,-39.34112261095232,-27.85944270562151,-28.801143473801158,-22.200956403352272,-7.982251759135816,-4.94244247481288,2.0262807987846054,26.11219883909925,44.82203358275394,54.91769040611126,74.47830865233824,91.12708541501232,93.51025439213025,101.21544466479794,112.11498506876688,105.4153483238899,95.59813255112368,97.58395785558423,91.78381009998535,77.08786517204668,72.06041559990948,63.547887021889544,41.08598349876525,27.845532828906002,23.898131323045682,7.55392171171814,-8.170442950509722,-9.666398154077196,-17.319366024245625,-31.575881112804343,-33.237492520716785,-36.30749412959556,-52.61019130126321,-59.00492989303634,-53.952647369569995,-58.32854691249514,-60.42063361281113,-49.02066553325407,-45.19929887205012,-46.61957242415314,-31.14661019627728,-13.334918625243708,-8.236328281400409,2.486834247969144,16.955791724742955,15.929287687660405,15.312112681846006,28.882200076741047,35.13155510012102,33.64705475363897,44.71149751600311,54.184278028523266,48.26156217520864,47.02074896964847,49.49956151177238,35.56155930316656,20.731603160112844,19.79132745196303,11.875972335392415,-3.685510066243494,-6.9770986653985885,-12.197098700685231,-32.577773556428866,-46.42107111633303,-52.76473650012204,-70.8041410722823,-85.99090251456046,-85.89244171235408,-92.2261526887293,-103.91131040856074,-97.63503406746187,-83.8351857225902,-76.10524265448768,-59.16561164180837,-38.97926868043879,-37.775928166004654,-39.83807715556817,-28.36006027984125,-21.99611477351237,-21.733738047850345,-9.845580886814304,-1.5123228077512048,-9.385748361685698,-11.720286037844591,-7.866961494076011,-16.317577940121986,-21.936296505785407,-12.639809772253306,-11.046555103942653,-18.724502418296584,-16.841186991105882,-18.378492980483664,-34.23602965943843,-42.23451601077757,-41.10894882634891,-50.02793118740716,-55.973004838941804,-46.86391661216831,-43.4956237834217,-45.36404481214567,-30.64766616977447,-10.907493424963471,0.3053192678679245,20.630838381347797,46.99180079499869,57.751621583160905,66.5475358606625,86.19618364398653,94.78578783013424,91.56011623290094,97.12209864777981,99.91815314151381,90.16839784096189,89.9890629328807,96.88715565223347,86.6087997817925,70.30453442829221,61.5778238550426,43.244960924582685,19.670289877128713,12.60237870056943,7.0885932683831925,-11.02564634147274,-21.423740212574245,-24.723522123547617,-40.98963912472759,-56.06351245778005,-56.126622071419604,-59.78729901160604,-65.79713038878417,-56.686395764421114,-50.211763746284504,-60.507679081075274,-63.93929639996263,-55.960780109929686,-54.37235563410053,-46.86252338520054,-22.656817720188243,-3.233973645280508,12.184140731329464,44.3753274014111,77.61521363416301,94.35333170177125,111.7873966402436,128.95381546007022,126.73707634578506,120.73922138875444,125.55399950576391,120.82534207486418,106.21974837145103,102.0171660377002,96.02034383893361,77.12400498742673,66.08889567864784,60.111961744126376,36.24892073099719,7.9644513064856906,-9.301362003773091,-31.679678899955054,-54.91319869418496,-58.815743139753025,-59.59100936537324,-71.39064609795784,-73.79551564455136,-68.15694455300711,-75.74119817338219,-83.73755953892056,-80.43219376846496,-85.75331121970589,-96.01754256213219,-88.22068154893111,-75.03844694939836,-69.09308184909091,-50.33603800781468,-20.669689079034953,-2.02727140525439,17.22720608240042,47.775698297334195,68.847623545741,82.64236055769948,109.11278321481652,131.45042345211576,133.22821983822763,132.57189116322314,130.34544724264805,111.2154654302974,92.18585731524098,86.1216516831853,71.70295022097216,49.69692959637882,40.97812931105046,30.81559396217284,4.198890401664171,-18.382814155912254,-35.038790940883146,-63.04394137616459,-86.27531049936586,-92.32212829069289,-105.333591686282,-125.95111794289524,-130.7531399610815,-130.81411170772992,-138.70425673738714,-134.81513678106705,-122.32558364962568,-123.444182232992,-122.9333888961315,-105.84587656084207,-92.37069204018728,-81.94073518297044,-55.33611066558984,-28.021108943083888,-13.174004094958008,8.666811789615828,34.26426437083099,43.41860538895952,51.93724152180399,71.96095592074512,81.5573892890011,83.62108281481818,102.04532069131886,125.89267431029896,142.8935850338342,164.52677977041213,178.5021559767818,170.12341508566988,159.53391816462624,149.2095004784736,120.7384121307795,83.58728774825823,47.231963221580386,6.709836025746048,-22.618702391195725,-34.39018502485149,-53.3566973564525,-79.6040783892841,-90.788927604412,-95.29339706480839,-102.10750109187468,-93.87923975519236,-77.22305769836954,-73.89999560762375,-68.95488434822741,-49.99464247247964,-37.5310620463004,-29.79583966413919,-7.282684075994371,14.787746553993445,22.30135425202461,33.17153030555379,44.97629867033729,38.201521896066936,28.0393900301334,29.4470219105818,24.426578938004013,12.941751088613625,10.982054481935412,2.5462374242053585,-22.462007646014982,-39.80064319088163,-49.38395405588774,-72.97013509864382,-97.6601527304849,-108.51997992903571,-121.76897730874391,-134.86054968019332,-131.2308094291439,-130.46749534854922,-147.49653714519712,-159.2813265526314,-162.65385322881812,-174.76498660475045,-180.34767523732341,-166.60857360813446,-153.52425769801522,-140.70041450073006,-112.04560936750747,-85.52307753597019,-73.59846512735878,-52.78675057261932,-22.206114061441426,-3.7865038409734515,12.211291584859513,35.44831563348235,46.133760934077074,47.4190936223248,59.14566764870119,65.74096197713845,55.85541913744105,54.79298640044135,65.57710081325271,66.23408797038584,64.15138655114131,66.76509052373385,53.69612441342148,30.506514556141514,22.319033125081667,16.69752975454078,-1.3513013659718238,-14.28557066952131,-23.45126774474765,-47.473471267507584,-70.53927751596221,-77.84712860934488,-88.00767514027714,-99.29084372016251,-91.52241023358012,-79.41582747471917,-78.3524333589688,-70.72747070648283,-56.922469563522945,-53.083712914143184,-40.67950274322379,-6.240453850487707,24.496069973616404,44.90817163338517,70.58826265709183,88.95357061626012,92.84268997084249,106.19442778144897,126.83298982358404,131.89379952162759,133.15254985409337,141.4340173276685,137.11715498145458,125.0141892054914,126.48178143380268,125.43204755989808,108.04427220467393,93.37030834720674,79.10517750026851,49.21737559078571,24.234868081225102,18.540447580132636,10.388493814952994,-0.592552153572508,2.0494123661259063,0.940739259328696,-15.321606552117695,-23.779301333968405,-24.659259518754773,-37.469653312586864,-49.0102325667361,-49.267508626494234,-57.586432565961495,-66.49391644646386,-50.9931496068443,-25.856891968918674,-8.991202495560998,12.549526364107308,33.577525966475456,36.59732327776212,40.19292403315881,58.765258602472414,71.85459798428144,79.38837194953318,98.55473601527854,113.27372438509204,110.88541889445821,111.53308077784901,115.70079831260034,107.29494126265458,100.21981953041431,102.84910126490283,93.02704125732572,72.02960656820368,60.02943200518138,46.482196904098444,24.829430284218148,18.399705194704946,24.8126968169889,20.43001814617174,13.852298274051238,13.004576085513028,-1.954628464949887,-26.534892679432772,-40.208156888073376,-57.52764200159284,-89.1895173081631,-111.60084248850825,-121.34508436292515,129.75565303649674,115.4902070420494,113.53854408014598,103.29191306615014,85.84862712861577,78.30041686800884,65.88027138688831,41.541920511076064,28.589903253816843,22.70432075482272,3.0441497202231034,-14.542170770380945,-18.44976787292154,-28.72189926069483,-41.585764073669424,-39.35080415119662,-40.34306434568286,-55.88742372449091,-64.23434494549295,-67.45467391066249,-80.77938387547324,-83.30366591737928,-63.42700633293332,-45.239993837693596,-29.626703375880517,-2.0576405917896325,19.445392991437554,26.304093175408234,41.55498079542386,60.95987426347508,63.79683613476546,65.53305723933403,78.01288872321626,82.54093462737299,83.12762268612482,95.4770670451908,98.23595331851132,78.13753782264058,58.83192206400416,43.23325540129133,18.304505384211065,1.4794547410177326,-0.08371613634957775,-10.992511103739059,-28.62886677171817,-33.280621300637705,-39.73134406729934,-57.38476736320509,-65.46282416657219,-68.38486486170764,-84.67630921374612,-97.06541869626247,-95.85006605359152,-104.11457045837247,-118.47109606300613,-117.8953462775651,-114.2095526615263,-112.56343374742762,-91.55357660367409,-60.794580079366504,-45.65219377265653,-33.705965090172946,-14.61666787288505,-5.178163216959154,1.430796385003447,21.910020845367544,37.3000527370098,37.54333817424279,44.16840369835597,53.546580369120555,47.70205722757616,42.279679778341816,46.06367404981604,39.339600783819556,28.132887133728865,30.72261519143446,29.17441470826452,12.814690476884836,2.9244056977120136,-2.420488112427299,-17.096595388602836,-21.17441600830417,-5.228402133985747,6.6216729076740855,12.615210706741333,25.72661943248225,29.338864022288575,16.484488516159974,9.434377287005416,2.8946105239056363,-22.821745849824318,-48.817888140881834,-59.09505291461994,-68.75362380597174,-72.74102926200933,-57.74411609840824,-45.84735414915957,-47.72044102357733,-40.86349051816036,-28.735901796939274,-30.332085675459382,-30.636998806479134,-20.40338769734082,-19.596931019365577,-23.016696280153894,-12.28829245466977,-4.508108139276138,-9.593473430013512,-7.587880532898031,-5.281428513824973,-22.20341656063892,-39.28602151277653,-42.699914353377316,-51.32434992606446,-63.083666381381676,-64.66413755159743,-75.15717412228774,-101.54619349100851,-117.99238594997136,-125.6649339618609,-143.33294305173484,-156.54388127530297,-156.26346870544586,-162.55601047622676,-170.30046177434184,-161.05635621567893,-151.89929245484242,-152.33408467852212,-140.05945681721064,-119.37888444910047,-111.55061291574293,-102.90819054859823,-83.93769826571896,-74.3105799323598,-68.73750082211825,-48.47244503264264,-31.55572084848365,-30.208408838953794,-24.019651695502247,-15.508867890918507,-20.494860902880877,-21.152854988220316,-8.732332435653841,-5.544974952881704,-8.672506500324818,-0.462408309010347,4.654181667504049,-0.44386759750781124,4.498395394548529,12.477416895113748,3.203741263943267,-7.157404940067542,-7.955015754134534,-17.772482101062355,-29.810346867268642,-24.138910128177322,-16.243517789544615,-15.573911378952024,-1.674620212786631,19.625799939314497,26.139405626290902,31.001043513028776,43.204596988558976,41.833647031199135,32.15342546214902,35.3687326020418,36.27865737224657,24.16812850066968,19.495667890752202,18.240264371150644,2.538467438842357,-9.740289609047618,-7.946437185043859,-13.150723871861581,-20.831640419141305,-12.223856242898087,-4.077352417111358,-5.68788377053,3.701154776565216,17.934922500374658,17.497919409241018,18.66222074711633,30.686735737983266,32.469294498533245,27.416750826300316,33.017684019392895,34.54209434349814,25.906397027181093,29.9406060098737,41.596497939819436,40.689824399998635,40.92783741853961,49.13003594626052,44.554995647138085,32.608366321932586,30.714634133822237,23.329769808014944,5.285223400858262,0.43905447784361706,4.588517551340029,-0.6819156009033938,0.12247242988621743,13.78492366501275,17.294605047052077,14.35152726447259,21.958126174289653,22.83280354227508,10.002392577158396,7.462667196995775,11.378399530171002,3.553545784938118,0.6198980366505505,10.780141998620232,11.782985232710429,7.271151523466161,14.607637236519079,17.44953449976925,8.126412028494396,9.145421008179786,16.37199107953767,10.923411519216536,8.136780209043016,15.595498641834714,10.84414389200945,-1.1615861639519247,0.22788476684961978,1.2187337565562486,-5.833501454644797,-0.5432872972389791,9.719235313000087,4.143092311559398,-0.1405785413839752,8.032029510592485,7.921674049946905,4.349563666341679,15.666291746275006,23.021762638430722,15.648196317205032,16.311544143601452,22.446397371065604,16.69660466116175,16.039927045297876,27.357046699914864,25.618706755175978,15.840280635524987,20.35900825294086,24.21756828293589,18.230408228974316,24.05691929456852,35.06307566894907,30.27519571658293,27.178115491707242,34.76534505026714,29.36389148485538,17.2577614088351,20.816177370404887,23.139956000271262,13.823327122261908,15.919174920235367,24.3332734399064,17.208080920861136,11.322036346343225,17.530532376948592,13.505572472187527,5.270646997829779,15.500606692667612,25.870971683004893,21.70924337449764,23.991957590330067,28.67637376511156,15.293545626215106,3.0121193188495914,4.8212823333295045,-2.0526508484433332,-12.367962448858874,-3.514015069038061,5.919215743588242,2.020671456543444,7.288338673349001,17.90308483460833,12.039511035654265,7.059904279566986,14.656172642866169,11.525543388318473,3.762426024112865,15.783701797961728,28.567003418073043,25.16432107207844,26.903637310793314,31.71052365799396,19.763039359386184,11.060001966694427,19.4321496413335,18.584227092601342,9.159419846095116,14.281672821551394,16.863894738955985,3.6359256075489386,1.349366789212362,9.434386811980836,2.956695446628295,-3.5351646515136035,2.8777856856983943,-1.6414157203904476,-12.806504450732962,-4.880298168131552,4.172357781759727,-3.085771564088403,-3.248443215959014,4.17253304448877,-2.3498571589390984,-6.095852539610378,6.206082647078936,8.63798997737829,1.616371730458769,9.474393011775621,16.40772399939867,7.326534052126539,6.082725991031096,11.389896177732208,-0.15960928675001362,-11.310429197035964,-7.306992478370045,-12.561387592673116,-24.81034633810508,-19.6910960040324,-13.838570430601347,-21.914170407942308,-20.637917273204785,-12.647486928509721,-21.324729660535404,-28.62714482928054,-18.42071386207851,-14.684523469477098,-17.914972224131468,-7.458064549566674,-1.2877868611239884,-12.071946538679468,-13.028668610114538,-5.620894643655831,-14.774240458448332,-24.208696411958833,-18.516029250927378,-20.026581394054496,-25.891801895545154,-14.023831892745216,-4.370047377174085,-12.696287149949717,-12.868560366500063,-4.242036868852974,-9.702209750790594,-13.037162217208678,-1.6840081297141278,-1.5304312055891802,-10.622824008696027,-4.328842656922131,1.5090984002060308,-7.147089672795195,-6.64982236087333,0.3815324770125792,-9.875298383635565,-19.593944567739634,-13.190417896943583,-14.270662512039246,-19.93161031837183,-6.865863128904752,5.095479359642327,-0.3258167530458653,1.290577500785918,8.318859275075404,-1.1469803633402869,-7.399969191486196,3.7389115193466465,5.259420014152171,-2.600407924830837,2.9658428299179547,5.433265068876067,-6.244964745100833,-5.203972770196073,5.30834236414527,-0.5893965850226976,-7.209055426760814,-0.8237941608451171,-3.8976667196978214,-11.906268530015664,-2.5558361847003486,4.537160588320149,-5.090579025128421,-6.752887942256077,-1.6497458155130227,-10.983187229900796,-16.472976508761953,-5.617148063043089,-4.907095943381958,-12.187323937153893,-3.000714326724024,5.187561088976148,-2.329343112738857,-1.1874167308391739,5.601775249868654,-5.623289043924935,-15.062237024569518,-6.641643843781491,-5.647897603017063,-10.567625945147865,2.603657089049599,16.197976237039054,14.030874544103803,18.275897139503495,25.712366158015985,13.701146651699467,2.8568907647375004,10.88473041964497,12.702518779075831,6.134620839221361,11.47517598859436,11.771870365031194,-4.344218872665547,-9.113006716896779,-3.7762929946345647,-14.116556421035849,-24.10665454964166,-17.730951822483284,-18.306070286393048,-25.106684944025943,-16.673580017819575,-11.625264611057258,-22.941244035077613,-21.850895325781273,-8.43798499741467,-9.78387382277559,-12.778041952951993,-4.743843487745859,-9.738768661426453,-21.342168171805838,-10.081502260579601,8.013786923769468,17.114579190010268,41.74921010790736,79.36486996143093,104.29372100993808,132.30085998543638,176.13967653293875,208.81289386264888,229.99810227662948,259.1255024937622,270.1260049051486,239.1094724452941,188.87249543456494,127.8963905122937,50.58075205912611,-10.388325892476438,-36.79042131426,-62.75734504757241,-99.05691683461131,-125.37832372360593,-153.51354615714496,-191.03823030360923,-209.00587407766872,-210.151908574607,-223.3296082082891,-234.3676064330931,-226.63824508804083,-220.79797615387213,-214.28180537367953,-187.0745578938451,-160.8089033850186,-153.29877019816882,-142.730323388786,-130.05405990537767,-133.99305190460862,-135.16791470719835,-120.47710834861233,-113.02269333114403,-109.67833856946763,-90.92330043595307,-77.16999122735953,-82.10488086650342,-81.78962757952358,-77.67365274435949,-88.71396536682897,-96.32788894858173,-89.35934058569089,-91.13201322681519,-95.84705222682442,-81.65871088251029,-69.31282211857655,-73.27789895967037,-69.29156410307095,-58.06919788499658,-57.79319833186435,-51.22434898946796,-31.852762440498232,-26.731450474463728,-29.384053957100857,-13.821441434317974,4.16193441304603,11.23563549399384,26.800615784361753,44.45159179131936,45.1626872919636,49.17539609367613,66.06212143314805,70.02890029973253,65.49919435355108,74.12071909966023,79.15543754626316,71.41167486076205,74.09967495835666,81.54439776152026,74.17170807513888,71.77037743779846,84.61223639917418,88.1913738150779,86.51172356587514,99.54747163459268,109.88520070943653,108.10101586713796,116.47832436060625,128.3111912105104,122.19211718703848,116.13257147486269,122.07031338869467,119.3044578032308,112.81201908042475,120.02614069046541,121.78546352185332,109.7786638541852,108.31577840159899,112.91767512443232,103.13997122513109,93.55588787523578,92.0916420852956,80.98458099238883,72.80846298693078,89.00879571849332,107.3160993487274,110.4752189649923,113.88581483750191,112.01038086183353,91.66743074703066,74.20178771286237,66.92173063229474,46.51314552249947,22.387345931081665,19.252796911763745,19.726849688265595,6.771163568654028,-5.16652729734449,-16.803332851308674,-30.412401383957352,-15.535617252907608,30.84449738340171,70.9805764525981,106.1768011817202,160.8627236460743,217.28803997145314,254.82505597305766,275.8283134367914,265.8013088397564,224.99533988183467,200.19440522734362,207.6387003756794,209.0154200232316,191.4447507656588,170.27969659562575,139.4686399803299,100.51424436022074,73.42443089066566,50.056746865156185,21.065059908252778,13.446711976603972,29.838039161113134,31.586143844781475,9.326884027160377,-20.608409221295886,-57.72448986688782,-86.3614779016353,-81.25847366060096,-65.58610119409146,-73.10643943510044,-90.11248471059109,-104.13247950306044,-126.17937011102384,-138.7998837203572,-119.6546502624338,-91.44986996557137,-75.26422986735493,-66.7765849299971,-85.04701149518142,-146.23964192561448,-212.6897096861544,-249.74235547131917,-262.5977432398367,-246.71283500704337,-197.93377024814623,-146.50868353875293,-104.17050006965637,-49.40983153259938,6.829047191833887,36.160528216319484,47.55956516051031,47.970387718866824,23.383457632614082,-7.0622191029833905,-15.900810056521753,-20.39903906564729,-31.82111122940475,-31.01501961840495,-26.802932477000873,-38.70733625148639,-47.40418896327172,-44.713004786191206,-56.54647497959513,-79.19337209316909,-91.87758712704557,-109.29849375158312,-134.7447946031996,-138.29828482671115,-124.37539394348832,-117.75532292916412,-104.40459189662722,-78.47074760705289,-68.98114679570686,-73.68103682190196,-67.96588335181164,-60.81516410135915,-55.7936818687689,-30.1610788796161,2.8980934981567508,10.294400142283255,3.4704228223180063,-2.9482520856828702,-24.381812519764935,-48.58674016292757,-48.82674554477548,-43.59508393442393,-50.28771994886504,-53.97587301925537,-70.73927942091842,-125.52664548682998,-181.58546582173398,-204.5118713097687,-214.6662599885233,-215.53396966056638,-196.78562779999066,-192.64375102660125,-216.05155213744933,-224.0520825965418,-214.27345483525565,-221.70143232965754,-233.10705624437918,-233.0482467970972,-245.28755210018406,-255.00619978547923,-225.27074290077883,-182.24667514754339,-154.4480885662394,-117.83179466068592,-77.34588723619453,-63.47852941197684,-52.91683892686445,-26.558807759283077,-17.6522326162647,-23.957283945711684,-12.330536915024846,-2.913904727111392,-13.05878897750126,-10.187371871906006,2.037640565513507,-8.793441033199494,-19.32823868979678,-5.089333261757497,9.228749783609876,26.57886064543949,69.94409217258699,107.93534291879844,116.57069461409318,126.97284110843154,141.0260418255873,134.37829613491562,128.8527829683195,136.73760825428053,124.55969612692587,96.01042868401312,82.78552799805429,72.78628202281375,60.10221144302744,74.79512667709595,104.91584555259954,113.83384974269262,119.5182316462277,144.23199334606826,167.1516322468923,187.24167495554536,215.95773170743075,221.8971726645625,193.2844877832917,171.82354425702792,165.85959406359814,151.5544453470932,142.4079214471053,146.37361732371784,137.49746385151454,123.53354091742727,127.98532267854412,129.71300721313003,119.38097549435298,127.41686997925984,149.27043471712165,158.0204827864835,167.425730971765,183.67512456806944,179.1658425680209,160.1443626445656,150.8175166503942,136.5152008414774,115.49016901097968,120.90735292295986,146.95312453979645,160.24922113348327,162.92548904674433,155.6778559194663,116.56687092866082,58.118655375208654,5.526146625702179,-58.827033799218974,-142.4125620763523,-211.06727166765214,-252.83458738151214,-275.5480506650516,-262.10804264573164,-213.82700143489433,-165.48744435493137,-118.49273269004246,-55.94717009334252,-0.3058162870205745,34.03335771047827,72.03593845098197,113.2337188378931,136.22121350678515,155.143666114668,177.27852854799252,178.37675712003278,172.19852398337125,193.05950099549017,219.56198273394983,222.2680518059541,215.19911047053853,197.089497003614,153.32783811384746,112.35328886008756,88.63576178295698,43.55655270363016,-27.222345926523374,-86.60645484437482,-136.2100025598582,-184.08068760013967,-204.35467464415734,-205.06220360318045,-219.3269784266349,-226.88786841189628,-204.70772170569654,-181.54277670808878,-162.6493665507589,-121.61812729009199,-73.06770119788392,-32.332941961754045,25.462037114828725,90.1123906908812,121.40175690509653,134.07698084931053,157.06038067098228,176.9282496848951,196.45491306690653,232.89988025894797,254.32481036455334,234.85491333590159,205.4256345108346,176.29443150467543,125.84063964156498,71.93038326833681,35.38038637108696,-3.2738985197368287,-38.66691346627,-45.67231684651007,-49.73656271034663,-76.94504866871686,-103.99884227472032,-127.10557161402123,-165.26988445791335,-195.20251514258877,-196.8327884374701,-195.5280452120781,-192.7370775286165,-165.9312201973127,-134.377406958703,-115.03528882291155,-82.7759413807593,-41.16651458376768,-22.888878015012526,-18.444230124295323,-11.504825060514861,-19.965441509845142,-34.86450564951312,-25.784583925280664,-11.218531937534397,-16.11813390697728,-22.22821662895473,-29.07885078958416,-58.174922642506345,-91.19965414583196,-110.08271188695245,-137.18458286556347,-169.45544125037898,-178.56508299397842,-180.5926609458795,-196.71033773616188,-206.55129341441966,-210.96080330166683,-233.8712267261422,-257.1210116724291,-263.2866486645265,-277.90187754839064,-298.77475267111777,-294.7110573989318,-278.6513403779856,-268.40564840637006,-241.34979935632634,-200.49968920483582,-172.99260497206842,-140.43986580595586,-84.49258049916261,-32.93346179106724,10.647457310887656,69.86525072425817,125.8278203014961,158.46161660014042,191.27483312570754,223.62689030454274,229.51660355792325,227.2965999575522,236.38952762307713,230.65415741089183,209.193331491285,201.56126906430165,195.75699373831213,176.54707985603844,170.0708443521309,174.66053378930894,160.60603176485472,142.1501867421293,131.8923649365571,97.8484053053935,41.496386486030374,-0.6785090149246527,-33.16779220679824,-64.75289689580441,-71.49196665740331,-64.07816365932729,-75.73014009812357,-86.81479781743145,-74.44007106807268,-63.1048748490815,-56.90745122082563,-34.74498790071731,-13.380653976286599,-5.5419543214454965,17.993040540110556,57.43015102693559,83.42903673665984,107.41213435480574,142.63575237751337,162.04212018371481,163.99357609665802,172.3336308972515,170.9469044000967,146.270449558042,127.65907737146968,118.60963389208287,95.35259800461833,73.67964548815257,68.39998676259077,52.26538600376369,24.858930063006746,14.242156048479366,5.7412737713304,-18.42396966473122,-32.867866255965254,-36.93149322940533,-57.34049421276441,-77.21423616560499,-77.770282715702,-85.02925131650424,-101.76415013193069,-102.9135539273484,-103.46493477467642,-119.19671936183616,-122.56437909074359,-110.0568707825205,-106.72811366178098,-97.00545284524877,-63.39932423002409,-34.00029389604657,-16.00095275094902,13.354545227973253,40.05961826747552,49.38449556471659,68.77932990802165,98.28221030552196,105.04854457352155,99.36482009769962,101.96898109255196,93.70044201911386,77.23631809473841,81.30829569562701,88.58628255109991,75.73989622154718,66.93754603723576,66.12305248264502,46.989512342719266,26.309623331355926,26.51010054688587,22.458140374105138,9.35898312793254,13.109883552961259,17.057044506577004,-0.22907929460012344,-11.672332690989824,-12.396166343508146,-31.99389968693485,-55.92888084933837,-59.050425769082025,-62.540135463141226,-68.48450591321534,-49.226343143327,-22.153909826559385,-11.336985753745942,8.81291803468594,47.53185810573389,75.12600304084278,70.13043343871036,13.200177221723326,-96.7924819496226,-202.63292475582585,-243.38018615564334,-220.17848463522824,-173.15750991203737,-152.2242282294963,-190.0217350008347,-248.50006183905228,-263.2152293601516,-242.6487549088569,-226.09565967376193,-210.22480947804596,-195.8870748747574,-198.03450915811692,-193.12251089791394,-167.6739227735665,-158.44829071989463,-169.68565424376948,-164.4909853844834,-149.3153864186228,-144.22027001776308,-126.80877760803668,-93.0552680289951,-69.87264758511078,-45.05610117146921,0.5543816113900579,40.85951704044693,67.96799918497193,104.33325010914382,133.41553376296403,136.61684803133267,143.95605231058857,162.14779852148422,162.34337137824028,157.8733507852481,170.04526311480802,172.81607632471605,160.19876303453577,159.170049525249,156.44375229708695,133.73356479635794,120.01599559954764,121.80644409723553,110.03197425095996,95.81820358385004,98.40016440598536,91.76324870289649,70.73513707348177,63.38426725289056,57.228596762576,32.63925651852949,16.02148041183235,13.334584672396934,-1.9966061374200983,-14.718693365539332,-2.0331125562305195,10.808393987126978,16.02150318371826,37.484592398628564,60.540932902827684,67.39912269935654,86.21123836657247,130.48649598070898,195.71124399723365,302.3746566633373,438.96831722862873,539.2763197651234,569.1139739729203,549.8958418813959,504.23540510009946,457.6071216222109,440.8261555301598,433.73087389954964,393.9667038052203,341.3510231543051,309.1115697049226,277.4583515378632,236.46465861318586,205.8068817093167,173.25036902478905,127.53380660473519,98.31207328796931,84.50529020532058,50.96220070279034,12.02056312001735,-3.6757607500760483,-16.775284549815584,-36.3659031408812,-41.80018371958131,-48.311097878930966,-74.2940041440436,-93.5905321345664,-100.21110512993869,-117.19338003827079,-127.52974119900358,-110.65876482755661,-93.90658464197813,-88.2597892765522,-73.70148539546128,-63.4767506770543,-71.21858669958549,-68.1953651563986,-52.210869828882906,-55.225408063007734,-67.68277804593784,-68.93737973996826,-77.94139162734875,-94.09374098427932,-91.90559223644067,-90.32355799482347,-112.91189514072505,-133.90743462460358,-144.61175653681417,-166.6450351863311,-183.8778877519271,-179.37568294047088,-183.85756705646781,-205.3055810358414,-217.11268982417667,-230.08203894902502,-258.6725134106967,-273.502146572887,-269.213350701635,-273.0416674173083,-273.13983922270535,-253.8067124227466,-243.06981663395268,-244.2779997281513,-227.03779408683596,-201.30807771354327,-185.27175730502591,-156.9962059559963,-118.44036338314271,-100.72959779613885,-91.42845631072547,-70.2158358198492,-59.87630988050933,-62.274724452448474,-49.43949720358155,-35.90542953081146,-44.669097395173466,-53.20836719712171,-55.852794342640784,-75.88421003881786,-96.87432797882593,-98.88764948872277,-109.1096396279309,-131.228454119502,-132.5494543499749,-122.39682327467642,-123.29205356164981,-117.83838238083021,-108.82312787071416,-123.82792662900985,-143.11730712830365,-140.45434509703335,-139.017846090408,-144.73393150193596,-131.52424170518708,-112.06123166383622,-105.92183486780846,-88.99663785504754,-58.840748999303756,-44.56684501212726,-31.808949173156567,1.9217891924056225,29.839280421151486,41.79554767257204,61.581130887803425,75.99680418403814,66.21938568659095,59.26194476870036,61.23510565523269,44.819887171000715,24.09327207179885,22.27632211621573,16.686176938430965,0.8390412562881009,-2.308645559239202,-7.3759367886574205,-31.980757533901244,-48.62709208359718,-51.892558072219835,-69.2468600839586,-88.19560056993743,-88.39506768623765,-93.04760398157235,-105.58036257566194,-99.45288689160897,-89.55192121658642,-97.7689029901367,-100.3480139691234,-92.27273336968362,-98.5801737767102,-103.04424352173737,-83.37185750624616,-64.69661016144612,-53.93153687943696,-26.004667390162847,5.6625934850338355,22.17898321019667,48.334358487520234,85.54051926071163,102.9213316097348,112.62454833401338,135.0925942115365,145.20235265215948,138.91652045722455,144.0502022915434,145.73552072178245,123.54478610184978,105.80770617297038,99.38431832448117,76.76746283630746,51.89454773274015,45.75643163204252,32.579167954402216,7.370348983487565,-1.3180479941564838,-5.624877696103242,-25.931384323799115,-36.89856465104882,-32.839525460637695,-42.39829747496873,-54.430342891859134,-47.25065033995614,-43.542888513072306,-47.85738743521152,-32.58759938464323,-11.590153131248803,-7.3482558731557726,6.504440401885868,39.15306512570242,63.49496389318393,88.59074287460066,131.6791577859505,165.33768010242358,182.44751357291472,210.9605974348044,238.56163691997816,243.58459281967046,250.42771789863835,262.88229260452977,249.2814286653579,219.95976059392567,199.5332661880126,171.60186175469,138.22270025061258,127.76435047434383,121.22392563265998,91.93419932808291,66.94801125164511,59.851264841974626,47.043054810186675,35.84841444168728,39.097983785146894,28.868400960590833,2.174223534159652,-7.766600259224561,-9.189291236738823,-24.275630198951472,-32.36623657894969,-28.77005372419504,-39.29231613780255,-49.885631967469685,-37.02676061205564,-22.204704326181812,-10.766730106095066,21.461832774353667,56.819652849674455,69.48258508193172,83.05769522493404,106.93261306406967,117.42708613359012,126.42396929292538,150.93531740624834,162.75946703613704,155.2584411941429,157.57814453579238,159.6376105717178,140.40797886679096,122.40756889559758,111.62165367314735,84.1443382071182,55.10808999342924,45.49177270033624,28.932347608433496,-2.5839510153987675,-21.03461463236581,-34.59422279215595,-61.81672422393983,-79.37737736171913,-82.70866396523287,-99.88830193790608,-119.30879259791206,-118.75044447669663,-121.23021364050223,-133.606648623953,-129.13872382730779,-119.40158644678878,-125.43115159032172,-120.90255530259796,-96.70495628051145,-80.18263592920815,-61.31083154767759,-22.060638006410844,9.303997091280857,25.60622224457395,55.94358727156064,88.62862948074479,100.2073885343119,112.98848726600242,133.4069052865994,134.0420561478631,125.75012173888535,130.50523975503341,125.25682057441007,103.87814715917179,94.7927081220038,86.94539589809793,57.15672137293292,28.438255939178642,10.130765387916064,-21.544442297697834,-53.95776612494044,-66.10216705324477,-83.30959113026574,-112.97268861785665,-125.58681211418745,-129.71718037179642,-146.32516411046868,-152.72599540625396,-144.83883869975784,-153.02690007306478,-165.87392274181104,-157.79671957161193,-147.9710038585967,-140.8954926396063,-110.25220626951388,-71.13050763100071,-49.60159385747393,-24.096325521997194,12.089169861346033,30.58890174804501,40.12511563534711,61.26909023071681,72.69614313882708,71.13506768448869,84.72984761403482,100.4897789608544,94.50352240695345,88.97441285032049,91.4409153561501,76.60779085235518,56.06275173419779,50.6829096531337,38.05490663028599,14.318852565198295,8.16844379405468,7.9372962281749455,-8.898737672398289,-20.007908596843976,-19.358159059218707,-33.30010352144112,-49.96257663171691,-48.32428496388891,-52.612852032080816,-70.12935668587521,-73.72333972435592,-73.7390311017187,-90.43926096976476,-98.18169088860012,-88.13540899013807,-87.17309908279351,-85.34628350628918,-62.39949277805077,-42.13999472384326,-31.237831322467258,-3.623079819462938,27.74254924075435,39.13330258784873,51.61703627953405,71.97580770355376,75.73518817224058,74.61691958294286,88.852180808252,96.78086181931945,93.6201920581972,103.19893889599678,109.98627460178633,90.7688162161984,69.18880265200053,56.183641849725674,31.14084660658907,5.900082108307663,-2.619946360142248,-19.01381571929226,-47.36552876327485,-59.274050095024855,-65.1379448571154,-85.8780426240483,-99.79173297475874,-101.35856810656924,-115.36215267412169,-129.35267684847426,-124.00193674871763,-123.60503515934494,-134.13089418864803,-128.7103546718331,-115.9563721711227,-112.76309542160882,-96.05828553844307,-63.354608797659566,-44.699718221760264,-31.66513256934106,-4.641450047280138,14.71561200893147,20.370646698273372,35.863252429936374,49.34570851615456,42.42609795624129,38.7910535020066,44.774102258883296,36.14806450304563,25.14031766915877,31.29669974237309,30.940856015263755,16.789820316809276,12.521315916061475,6.826519736420202,-17.980136777777496,-37.09212089391624,-43.272014557219876,-61.087163159299095,-79.71813985634557,-80.75235389423437,-87.42679539477813,-103.89740497677577,-102.18932955918152,-93.09501870250008,-99.53579225788614,-104.06527455023375,-103.11100950646593,-117.22952987828835,-126.66416222934899,-106.58797184987442,-81.55976326684461,-64.1416248797942,-35.178545520158735,-7.433643155266867,2.270971472070708,19.960019938516986,51.75650687049212,69.61327096377892,81.3088572189549,104.58482149312073,117.15810197600786,115.00493960062435,125.03912260152677,137.13379727554232,131.82520846343107,130.6437345368161,139.33989590521006,134.4481222634371,127.48990709901351,135.88268925714783,134.06377488622266,113.86446495663105,101.00963498609698,88.79426462696286,62.34421487449412,45.53929808469746,42.80170176242803,27.111970382306808,8.580445944291892,6.991046332188921,0.8959376622108013,-14.97827355373849,-15.964064591931386,-13.157936394959505,-25.710667052267514,-31.47484305381301,-23.80763941092684,-25.267748619561004,-23.868350039116276,-1.1183495634719876,19.75958053545415,31.197240075819007,54.96613604770712,77.84684267159138,79.55196035517983,82.59486729564993,95.38825136749175,96.32539417341438,96.82127017419538,113.68198006313014,121.15233191137484,111.50661675902774,111.06123502282028,111.1266926611032,91.83569581248672,74.15921894198326,64.4484219596173,39.37978541224386,12.195647556330577,4.625569803246828,-6.009832447955532,-28.33904175790339,-38.42433185518702,-45.45270861536376,-67.33059915926245,-81.47106303935215,-82.73319591187025,-98.0954952939777,-117.73892375417867,-120.06452581817872,-123.44318028979363,-130.47138695944543,-115.19427434413548,-91.46916180839105,-84.42501732169569,-75.30143573529375,-57.60223964006151,-53.95074789656519,-51.22954386378808,-29.232963161093743,-11.926126230721517,-7.793246022120854,7.005364527266518,22.6042086125997,20.83204650381547,24.80882700316836,41.97618122059152,46.856903575250854,45.464687447169645,53.138800477136876,48.24495858052214,27.98509798211176,20.935318330772876,18.764518960944926,0.6160957468514487,-14.522354782583054,-20.791926207415212,-40.97902654174807,-63.56399093831375,-68.54660263202,-76.8100020647409,-94.69467176559128,-98.09419551267928,-97.1314045460645,-112.1831290158322,-122.25621708235816,-119.00444949567981,-124.92030724678303,-129.0515783938119,-111.33360705640041,-93.18845006590678,-81.26016486054833,-52.268535928211676,-18.267328530000306,-0.25158256340141705,21.215158726653055,50.20125929516093,61.862614186095556,67.4484313688978,86.82388155029061,98.07387682947179,94.36298875133457,99.50259654918742,104.23028373975154,92.33119087076135,87.44089958451843,94.75873125248195,86.37847364012504,68.90363368540973,62.144413954211274,48.6466442207889,24.803578190266727,15.699628525671931,10.787425424305049,-10.886191718676752,-27.932705087652046,-32.5927211202123,-50.39547676329049,-74.253347531144,-84.99362099715955,-100.24174198734288,-120.85306753530148,-118.68290981749797,-104.83775183441917,-103.65147170821066,-97.08135706625394,-77.69793573544324,-67.5685272333481,-56.18581048051557,-26.632090337073045,-5.287643709816976,-2.0249983592185226,8.035470304854126,17.284273059502993,8.956280404818934,6.878398042753167,19.19376330923699,21.835205908230073,22.750570085996173,37.970057898725806,43.5882169558537,32.430441972182855,30.233965815290958,29.428549885066097,11.825767982432392,-1.0354120129827082,-1.7805796654022918,-13.830409804309559,-28.133840321637756,-26.94525761514772,-32.58679012093801,-51.70404016620702,-57.945963884560015,-58.35960409834126,-73.37977410704713,-85.01811905033028,-86.22531929085702,-96.81010828649947,-102.28074115722447,-81.1018302723699,-57.733184136905415,-46.74781454021345,-29.507802434912357,-14.066212028202118,-13.854048352544886,-2.9047519021611556,25.5623154839244,43.108134512687144,54.80846735537793,78.51743864497513,94.13608761984662,96.24058154836278,109.45351061860588,123.28811302661691,116.81413466037938,111.14243180589934,114.3903243754268,102.92900020269748,86.10324601050002,83.83075487295868,75.94433726570081,55.13542546695711,44.18864135415714,34.07660093637911,7.06158424467616,-14.863412154021969,-23.701914541257842,-42.72592751506195,-63.193324103632634,-65.9171283096922,-70.98153079088799,-85.20818457844966,-85.37959032545453,-81.2174116103628,-90.92044971831854,-91.41399441311033,-74.44834426732331,-64.37725112858092,-53.448729688943196,-24.0895012606248,1.6139763418513118,16.086741608179807,43.027331865458024,73.07651296908375,86.37000495652669,102.4170327052782,126.8166651720102,135.01227936701318,136.88957410410407,153.39520002998998,163.79780156216427,158.27384020542294,157.8833013649512,153.13088954170937,126.91486156124344,104.15360970866449,94.98273966833037,74.69601878786555,50.417952814171734,41.84897734838378,29.624935364600322,6.590538166578212,-4.419986206906826,-13.737440549563484,-41.0155880897349,-62.30654595095055,-65.9187614691757,-75.35001911482594,-84.3459440851802,-74.9015618757914,-66.75646713368349,-65.07719496411491,-45.454328887396734,-20.467557645282348,-14.319076752120012,-7.014343078425006,11.856244008755999,21.756092035742217,31.552413120300404,56.53356047707731,72.76697989957427,73.29622203470686,83.46547668665181,94.97682847782119,87.60480973683808,81.11560884434134,83.23682918733829,71.07201096314655,54.45989300405515,52.83059631133353,44.19229866340335,20.849919991194355,7.791711231083278,-3.4390551181514466,-31.362214908358766,-52.050936961301076,-55.85442012625679,-67.93037566141723,-82.40487302472386,-82.62690620626411,-90.47954400589806,-111.7677101811492,-118.96425825506391,-118.40773524283267,-130.4880181334282,-136.03876326389923,-126.60185530135355,-124.30716531440875,-119.16633155916375,-90.94260050764998,-62.88130950449589,-48.36526287001582,-26.434633593175175,-3.765293150209575,3.3690229374848544,17.998609540961127,47.139154353601114,62.03324356896453,67.09371091906512,82.59744901879529,91.18089042373019,87.70230455223411,96.73536059109486,106.82011235170124,93.9690095920583,79.17356776158799,74.31573579414211,57.52178355537242,38.056878921344534,35.63119283259243,26.965579533187118,2.5369254297819204,-10.807027487536393,-18.299828136032815,-40.10074951595352,-57.13607366387021,-61.900974003309244,-79.11208743683372,-99.83697416112936,-101.00634636606588,-101.23245332284952,-109.12729908824947,-100.43450971430096,-83.61964786686791,-80.9252198857939,-73.37053717070887,-53.11111700143421,-44.9093314261804,-40.27191707650846,-18.10853717392704,1.0605315192541909,8.393606680276886,27.36832514618795,48.413659797132425,49.50110023639583,49.58411198479228,57.07624792925246,49.977346089711574,39.12210386327714,46.38065898274586,51.14762097404157,42.95871869101719,43.87407432241218,44.908791407591956,25.414063399360046,6.994358862309381,1.3550922410591792,-13.613442331200586,-30.82054714598343,-32.01080972042806,-38.99555354972392,-60.57635578447286,-70.56935485966932,-73.62917379906314,-89.43862675972838,-99.59234810231108,-96.24093802028554,-102.76309131762244,-110.26457852975946,-97.13470286360739,-83.37267726070493,-79.03679195203635,-61.41783323376228,-38.829963906874895,-31.568175307289415,-19.42505603953365,5.699483047308779,18.41838110611133,24.50196627989559,43.70557252433791,58.148870902694306,61.26477765961424,76.29523052194013,92.59360144982668,86.92390426172474,78.33763275495588,77.11185109553745,62.57827625904849,45.27508182229704,46.358135523106135,45.449765958385946,33.47098153536112,33.85491385570056,38.27638674106299,26.016649198981234,16.79481145583847,18.119367852482487,3.57943831897612,-20.176454234653168,-29.77042872116713,-39.59344945243637,-53.24026468950778,-44.71596643720643,-24.76024271233618,-19.678261081389554,-13.084265042599869,3.905708465780344,8.94437710869026,10.76373879874115,29.547348712472186,43.992343018884995,44.02299182485472,53.96870342528845,67.33373273949707,62.651686071345,57.01580277453409,58.047520213622974,43.48332329013068,23.650488253797498,21.779364498311143,19.66692201093232,6.816175404415065,4.435342220545115,5.204416496845759,-9.574325916587847,-19.104220744198116,-14.933262471678127,-23.274448574552476,-39.01232211243186,-42.062795390568255,-51.196114632928996,-73.28385403860334,-81.84444933838033,-83.14884884725652,-97.75622471239902,-104.79612376434719,-93.32168973645173,-87.03048339551563,-80.52235329117825,-55.754332115324104,-34.901835300818504,-27.89185593767728,-8.30106486183206,19.347025140067515,33.488347750840376,50.01980751190443,74.47895382381564,81.74976630517918,80.27842434626596,92.16369730771875,97.67365252463017,86.55624335646029,83.05381562237112,82.16157594810272,64.716127314853,49.90299743588808,45.82402345948475,28.19911037942807,5.017707070313425,-1.2384487958075179,-9.172031346573403,-29.41796667024054,-39.286118976241305,-44.47631705878472,-64.10988033092744,-78.42324123866653,-77.91347179378702,-86.50041448552795,-97.58055387991521,-90.15890478086038,-83.2477688500553,-86.29325392878116,-75.49925683518055,-57.174306844648754,-50.68097274273041,-36.012179375129904,-5.729567734382638,13.12230764123997,25.173331645367288,49.70376619683798,66.4200235489798,66.6506429622595,76.05616092731482,88.60008084773494,84.30890988364233,83.69956041791515,94.9783893301971,92.05637850558945,81.78145007349417,85.65407959080471,84.02202040714091,67.20053323705858,59.06631691738633,53.04445249627624,30.066807924623895,11.616630670741934,7.397502471133052,-7.127599451077936,-24.869623705660977,-24.507825902183683,-25.77259231514251,-39.78725698460446,-44.883121931435994,-48.240240828998424,-69.00536083224367,-85.48149073917867,-84.95496829935541,-89.50494640188221,-93.52586526129782,-76.95937762706971,-59.16449199191567,-50.948706053824125,-29.12909441745247,-0.18248982479357068,13.881185397320776,30.13994911660695,56.65039081000118,68.6898510991801,72.28788063779689,88.57850142086014,99.61772061083398,96.99410170379588,105.5004976921171,118.89136152901563,114.66078238164802,109.34978960156128,111.53262857482521,97.68030748130326,74.20650702760234,61.80557024572919,42.468369307327706,8.809670441225379,-12.158997673599524,-23.896264925631726,-47.135558410985865,-65.44649233910006,-71.1012971728725,-87.10957273949735,-104.60038727229323,-101.14582164626329,-97.28750600542168,-106.29811245152524,-105.2604468380546,-97.14612680590619,-98.37923209992913,-86.76725769883356,-53.542395070042986,-29.13862436506607,-13.046798109700841,15.428369291733297,38.78259982764192,47.907343324070524,66.30601760199829,85.25408315391014,82.60747986983553,80.30150451062738,91.34269782586898,92.61811677725616,89.14191229286372,98.36040456498776,98.70064941674543,81.3229265213903,71.737910137456,64.76551156980031,40.47741156213345,18.02340943983536,7.80313174739238,-11.87044702419556,-32.829166344013245,-34.55142011911109,-39.293965667381066,-60.491051500017456,-74.31476732030143,-84.18444899219021,-108.31382229421277,-124.80041939920909,-122.14911234908988,-126.30417698922506,-133.0593362700905,-120.20739458976803,-105.89204636950288,-101.18854191216505,-82.3583627308016,-54.587264394304256,-39.76246974240139,-21.205658805428598,9.718602408427742,27.140755484305647,33.86916508661188,51.260198592162986,65.29598970398567,68.62494222881804,82.97702222841065,99.42484236688739,94.59278602401474,86.38821284181267,87.53906882949664,77.73269467555478,63.51756302882984,65.00679592206663,62.45374853142294,44.00397458525585,32.79340829572282,24.738777346584712,0.41113890772674644,-20.24639159706231,-25.716443782312744,-40.92625003726996,-62.193353734424164,-67.63198702126516,-74.46046447553196,-92.76330293143897,-97.70670710887836,-93.63577205957668,-100.97508219363073,-100.3961607472651,-82.88136979803517,-75.3209918565597,-73.42720600684555,-55.48666953931114,-39.01593815322265,-33.33699287096366,-14.978808671861069,9.17759949377131,17.87507024413153,30.666017064088376,57.12606376886351,69.97997724892714,71.589110361161,82.98433812662068,88.71350819008114,82.34494065748531,88.60861119269158,99.14434030721833,89.56355179287061,77.52898136081986,75.03410311209151,60.43845665903683,39.291846729960696,31.547911915581636,19.32643358035793,-5.718697753085114,-18.81540475737079,-26.03131821916819,-49.206613009145364,-69.62886154872417,-75.24281186676431,-84.9945292858492,-88.03845922381197,-63.27631489282263,-34.19628830205339,-17.58317285746728,5.340751581011806,29.27732513290221,36.92500536376962,48.728946206794134,73.5710051477669,83.92469728985976,82.85826326706328,93.72873580602615,100.39343956984105,90.81620814702802,88.25938199987144,91.2878143925005,82.30714479805789,79.09114732100805,88.24165616879485,81.3764448333735,63.42124595520204,61.615768950892985,62.87836306173345,54.070626442070534,50.9774151688046,43.44005800211998,14.360669282898058,-8.419926826612347,-8.947411091272674,-12.82724314857022,-20.658749653181843,-18.070086788535622,-27.83596967395365,-60.20199690958339,-88.0526891787086,-111.34396636460656,-143.66868523240683,-160.69648069023492,-152.9706786860045,-151.6315965404894,-158.75400235890996,-154.43240939243773,-151.6472823257088,-153.96742064056104,-135.18485312063524,-104.82635052993436,-90.7380962546303,-77.34637868911848,-52.83904601874484,-38.61873787529608,-27.591766270445866,1.0486225986145268,26.102617834033094,34.08799470110516,47.20120471905473,59.29928367691052,49.658394958423614,40.008071193539344,44.455562493334895,38.382935938176075,23.48365486352681,21.039818649353354,15.610734074581853,-2.858961704566638,-11.18578707535803,-15.225486681013837,-38.4932355951985,-61.80170865410346,-68.50674548718023,-78.6365706585699,-89.22134009196675,-82.88862064690707,-79.97848529199806,-91.05682209542148,-90.82683612827498,-83.00691695057657,-89.0712775954914,-91.90013750713084,-81.29545905263237,-80.25464057404201,-82.46366003542173,-65.77737066158807,-48.04603172458846,-40.83444788845154,-22.637199983673597,-0.544063431095255,2.813737891967667,5.972004370422904,22.30891159357123,29.20856649560345,29.81797623279533,44.589064889684664,56.37039417904208,55.09909058752298,64.61378754630503,78.71225229634993,72.62064561664651,62.372461995912815,60.93930091000533,47.34125459186182,26.54197978932114,19.232753770636492,7.4840819865589525,-18.598507694062842,-32.7271267867741,-37.755389990385346,-56.15841301879133,-70.2132328248857,-67.12981918576926,-70.44856262810364,-75.98917420477844,-62.75307080389395,-51.174727405528316,-53.37852051628249,-42.60837386446937,-20.95209614709907,-11.171945393343314,1.9788793002218843,27.898793060045797,42.184215811523536,50.42009503596884,75.17484899986349,95.788628759292,96.43318836108224,99.59454228584978,104.17417145803395,93.04781697516985,85.93505825166437,93.85241240145636,91.31567629583982,80.29225890827595,82.47361997889976,80.39977505695427,59.49964623334367,42.043515883187226,28.0869702765023,0.5972562436090083,-21.396980726708186,-26.673503158099606,-40.25820252931183,-59.29184061157735,-61.403011410694134,-62.957531651813724,-74.51485579096531,-70.87206122317392,-55.618385806509636,-52.43850049604954,-46.936334150824436,-30.517388473008438,-27.442953960821594,-30.13721870446234,-13.081840352380471,4.970401292787371,8.330633076886109,19.404271632184642,36.18315944824947,39.33538950133458,48.48924795388375,76.04528082849795,95.85443847831189,106.62654288796182,125.23053426302408,132.86249366218948,120.86059207976173,118.98010073447747,128.63666939553022,127.28533078053712,126.51478789058422,133.19303240834276,122.74222477399172,101.08203141309971,92.76339876422693,82.19977032285632,59.06106362068635,48.072772271577975,44.56988763989454,24.079197826605252,2.5457404319975145,-8.052460374454972,-30.464922500850975,-57.15769202393405,-61.61106805935861,-60.89513798181653,-69.53417491771982,-66.21745846650349,-56.96060432950513,-64.2155873532774,-67.16193402240773,-49.75848495857878,-35.654822396072376,-24.75988484174775,1.6064911519923228,24.789609661122327,32.575887814967935,49.040431810525874,71.15151686685671,77.29444073197172,84.82163952207114,104.60141373462837,110.74693729660423,104.81952345627313,107.41514289573033,101.84283117686812,79.20246281340323,65.81622912407163,58.6946994502305,36.24746318990518,16.91721594080341,13.472236913639161,1.89722552051775,-15.225200440052369,-17.58635430763337,-24.129824467033604,-46.328739215007765,-57.107915762435525,-56.307237038167536,-65.44747945457176,-70.62417686368902,-63.83991507972541,-69.742958498443,-80.69103038549036,-68.46753212657424,-48.87132617336546,-38.83191491595635,-20.45611361167359,0.7119559379153957,5.150294312061153,13.987541256492433,39.212850687800334,52.943238509676256,56.113523518779886,71.54781056534617,83.3062161488531,79.62178135814739,83.32848384456356,90.11105141267939,78.85389545033314,68.89328206068005,73.11267961142757,65.95630831871975,48.77972925102546,43.75222423236039,34.6772804640078,9.589214980026629,-8.09867916393347,-21.293220163219445,-49.98774504581769,-73.96687815496935,-78.4023214532565,-86.26613462130527,-95.94531324835788,-87.47331468009341,-78.61653973732165,-81.1475753384727,-70.7569754398825,-50.7864701864636,-44.549290409608716,-36.5575095773884,-15.75485529942183,-6.023494367403878,-2.986360587304157,16.001345598715005,32.00865987275651,30.544717337335513,35.007166971760036,43.478612775289804,36.12614025390339,31.82107270870294,41.56546531503945,38.13256187816053,23.27628899550119,21.056049127885704,16.76494731715791,-0.9769678306723835,-9.15919871834614,-13.229005592286615,-36.868387643562265,-61.45846210795382,-71.0434078938153,-86.37222162759848,-103.85703056863127,-103.19323372709718,-104.3230006741069,-121.87208200870595,-131.2719643376085,-131.99999811114708,-143.01549988640622,-145.71419892639818,-127.79507809009465,-115.24437454414151,-107.45292814555016,-82.60684507229274,-57.509087560594374,-44.78395108534373,-20.683780891487487,10.434287902017314,23.572087522720246,34.019290417808364,54.31176170506852,61.44097466813008,58.56892103051928,67.51559881585389,71.77263110473496,60.250605200681505,57.70741595245419,61.29838097108106,47.99626678473934,33.97677466028483,32.495222663033225,21.61778731597162,5.170412643061068,4.488209796678756,0.8132229190134028,-18.709479934623552,-28.125062231449213,-28.078927226269588,-40.44140092990433,-49.075427910475554,-42.88497232859756,-47.13607107407058,-58.76699119769498,-53.2902693437064,-45.96661538901664,-49.821567547072384,-42.11640683911522,-26.746233261286964,-27.168537271759103,-26.080036711497556,-9.460134800854602,-0.9742671359645293,1.924010329906097,22.59360082958362,44.737293388922346,53.10451427836835,66.44074990808167,78.26570539107118,66.60203424212617,53.01459182410473,56.79952058996099,57.718119545454215,55.70277991273445,67.05649442271651,70.8911108868168,53.51585785979769,39.906679921510474,30.2774014016992,5.269485789137122,-16.71848849797732,-23.161244015729217,-39.219620867808764,-63.16974533396192,-72.16975443801945,-81.50835247349187,-102.5533561560889,-111.26660961424665,-110.98358529588018,-124.55087415770993,-133.40100808628046,-121.80798460331974,-112.9573614201428,-105.6382918570936,-79.51443416062202,-53.911026149371764,-42.64983487258822,-21.12790316197308,8.056172097534091,20.705458378897248,32.32538639030051,56.35243734227705,69.46924517379368,73.7285849253163,91.4366806131642,105.27493065034639,99.93215143555237,97.1020806358441,94.83687079297405,72.08781463552916,47.14260522745339,36.120203666971626,17.62040521928781,-6.890621654793631,-16.424939699352585,-26.74797952895568,-49.03219372068839,-58.96753616408691,-59.44110229728664,-74.61671315276881,-90.52391071096018,-94.30380404751456,-105.59798537769458,-118.12706564257292,-109.54616134525821,-98.77135048197849,-100.39493237340301,-90.80565272264937,-71.31240879961913,-64.07980097416798,-54.449004431979006,-31.823103042146734,-19.67009044773238,-13.084592971682575,11.010563457844983,33.414514125141714,39.28380130980888,52.979320772729686,72.68940445480686,74.65233318936752,73.36477942683143,81.49830438725205,78.2395536963088,70.0057795879416,80.61706934217726,90.22878269283962,80.65596094987933,72.85013420339332,65.36840040593904,39.490303404995636,16.03618723247552,9.480225652338214,-4.657734396174353,-24.769895009232403,-28.602001990591127,-31.657745984058415,-45.51077679306383,-48.47935783246627,-47.95758796496928,-68.10388678665154,-87.50429883874033,-85.87293585696567,-82.93409570871319,-78.72904338572403,-57.31006597791196,-40.07656477837543,-40.054616263314436,-30.258830455911664,-10.581820744933314,-4.204058698638503,3.978714532019646,26.20553270846357,37.807371248407286,41.31394076944344,60.754193096263556,79.57192059027874,82.52766689100704,90.56456160483349,99.77230968571212,88.75265765694398,77.48975063611205,86.53216619520718,105.47952203747042,135.55103141236177,169.0330420477391,168.7641693295928,131.3391580385391,87.2452056086496,49.167121284415394,27.57110166912612,28.14791015735841,22.441727717559527,-1.6081444638126499,-13.056040139113563,-7.444779503311715,-9.030024994332104,-11.020145733207414,-5.501458937524817,-9.618670215236325,-11.671782930293348,11.545723893281977,36.22023490040388,43.19166236063543,56.53458680484281,77.57541509179704,83.66414890379433,86.52347290162209,96.35683097633279,92.14272097462555,80.17686328548488,84.41527827399993,88.1150764740356,76.43188859947922,69.90141428942991,66.28204456871102,46.609943045723185,29.240396943948646,27.27885646617991,16.833019907380315,-1.6292387698409723,-7.52390716986692,-17.33737831680078,-42.97603369560614,-58.99743353607768,-65.38389889622661,-83.16332419975983,-96.37700387253165,-93.16147552467692,-97.82231850004148,-109.28207936786943,-105.59916932008962,-101.36987635436475,-108.0388628779686,-102.7000139547922,-88.40566702284998,-87.75145020052098,-84.27501470569972,-62.55749775533883,-43.70335561765856,-28.776682372399527,-1.829872856738712,17.530208635718257,16.809090632028497,22.49259780999657,36.4644194069122,37.22495787150628,37.579797299183866,48.41823822419915,48.39531278690746,42.53991027182555,54.09086888123234,64.62723810304813,56.844586793746785,51.71022375098542,47.441004401346945,22.875821474476428,-3.874236791493309,-17.510749277853552,-39.17803204315595,-64.0106705432362,-68.41067593963946,-70.56899857771256,-86.62171249114637,-94.41796584562721,-94.72646172272748,-107.82385401053108,-116.70775940889644,-108.89960896206114,-108.14749050851734,-111.33063713396237,-95.50629578954516,-78.26678784124873,-74.89883844933453,-63.872585351993344,-47.750970318385455,-47.0212332693394,-42.62209955076637,-20.58560490214271,-6.076242373486945,0.7598259521845888,20.620261498711617,35.5393412144276,31.918327841294396,35.15732895867928,44.99910886939084,38.98756765342462,33.04667423228276,39.98001458961689,35.642307686346605,22.78602702236322,25.996943688358012,29.703431331011043,19.196826319212782,16.300677032029505,18.21388078604468,3.3884152643419867,-9.250372091190295,-4.578518232973856,-6.306399769985909,-13.757018741698074,-7.257128402840037,-8.306468961354822,-34.05813497202476,-58.191625457525845,-74.84247641747996,-98.37303405532498,-106.8980044543631,-87.93752482316067,-71.94164124382426,-62.31098735217365,-36.459433947514285,-10.137604123574128,0.574815969388978,16.25413072215237,35.06861911946175,33.275772980298086,19.94840264561268,5.76027563402938,-22.713167099799115,-50.712628346391746,-46.63476985836485,-25.22425469645703,-13.058202675883814,-3.7864450741048032,-1.202522242059888,-16.783791979617895,-26.17783022776919,-16.45294033842527,-15.539263662237286,-24.554724023755217,-20.355481108232915,-17.235612273884232,-28.026084226770664,-30.03564333154828,-26.55339140379626,-40.8591622531667,-54.56580136826576,-50.00862162121862,-48.5588502843905,-50.02467630077103,-35.534395961110924,-25.1821834453319,-33.33156083001715,-31.639034839491075,-15.817686191659284,-8.108800010448023,3.3557480872764835,28.554717409101013,43.59546764980708,51.91130593116552,76.54059839939175,98.78936909514353,102.36176057439911,110.66163497468958,123.97386102637569,120.99229157595974,117.21200934649067,125.45083134586214,122.10460277361489,108.61284914071696,108.37325044673841,107.14679214433625,92.14906550263805,86.94877174515395,90.17693597454719,77.97099488822462,64.56368222761405,63.83219839656943,53.93264098626517,37.51957135161646,37.08486725729781,35.60759059799779,18.910737531611254,11.834533124192863,15.299027748008955,7.643212336595017,4.516168253900549,18.41087361177604,23.678378748025956,21.273911336760186,35.24256911090321,49.56542755932056,49.330029742822404,58.41703408884,76.53120661891906,80.67093967192295,86.56433269648093,108.32421912369301,120.56002300848476,121.55314869627651,133.5642353060876,142.23137837077627,134.575974688881,134.67531467487927,141.8406326440525,131.65307190577659,117.2643466085666,112.6550106392221,96.42406225573353,70.99382410431139,60.13293418918954,50.10886945139659,28.5049775917188,18.4813327281369,17.327752512483077,-0.39166895730575835,-21.500121838632378,-32.136200903790694,-51.898147560962144,-73.48631303887919,-70.8937578614473,-62.87010311356781,-69.90637240764934,-73.46220741486455,-74.0492152135842,-88.184391497769,-93.21792064895678,-73.97169386355455,-59.10608987425929,-53.582563628553345,-36.30564090362234,-20.906684275132644,-20.357293714533654,-12.633797616430677,0.7486151730376998,-2.2153502516679615,-5.194129231871084,7.012874706252328,10.572350145140048,3.7420264267403835,8.797562949918797,12.022028725578625,-0.16160679892548835,-5.14338209302657,-3.921811075756687,-17.8645364752914,-28.507744562581852,-18.973966727609856,-12.030234166691267,-9.530216745594831,5.856188471436556,13.211793512927404,-4.054953182962826,-20.792221543825875,-32.0192580132104,-54.14797331940711,-68.89390650186573,-63.574449393433255,-65.01224576376387,-74.87019065844932,-69.84298294570316,-62.91730275767333,-66.44692638687438,-57.89397584626066,-40.959986611173655,-40.94243126143736,-42.67880457066737,-29.998901886065287,-23.306130733536474,-21.70143106223697,-5.886410770158388,5.7581475221303124,-1.4099956543605892,-2.6647478594944003,4.308474282477962,-1.3074194728114703,-5.702131443900742,2.3529720637242253,-1.2247420252850416,-14.94461295707646,-15.53629478344177,-17.62526256597994,-35.162127135508754,-46.44923440730073,-52.81150095562647,-74.92500264835074,-94.91934828478806,-97.06162236551975,-104.33988739067831,-117.60651721316809,-115.93467790364262,-115.13677642922295,-128.61822262250445,-131.77628493514302,-124.45764300601525,-129.37024776743937,-130.53832939956618,-112.31506858536501,-97.33266363333009,-86.72260102424283,-61.34878234236414,-39.96092154540294,-37.92232348575148,-29.66577851007861,-12.46962354472372,-8.809471934001339,-5.913169718484516,8.48470717507643,11.911178195781051,7.338993126344308,18.574311429743265,28.821533778834837,21.302899475071197,18.689547630949594,22.969800945494512,14.126561213448646,7.008638693874188,12.410521619766063,3.7605211753193117,-18.648566095184783,-29.17075099114307,-39.339849524554765,-60.48787280862017,-68.36166390543255,-65.30792311115525,-76.38632232829431,-86.23307805752962,-79.5873514630941,-79.75947634618542,-86.63282303714938,-77.54812748786804,-68.08094045165257,-72.27194743344,-64.67851899792069,-43.47229465813967,-31.61199602004881,-15.802469722634392,15.375438964052847,34.55617651657545,38.924404074061286,51.849254868185,62.125105160812,58.99577543346851,65.91435036027026,80.65766640950119,79.08677070174622,75.84232636218272,86.1281608033318,88.74971037664555,83.85451991114182,91.32515344431648,93.87937871918848,76.5163717667815,63.385618467488314,57.579696778735006,39.99693847281323,26.60168804509819,29.95975337459128,24.393882585202867,8.572253764414091,6.060862325142952,4.498795688638829,-9.41635900213519,-13.193320153621858,-6.8040660269851925,-12.335409681622501,-14.503690219982154,1.304512213662652,10.915696875426034,12.162352055717875,26.46306840276393,39.34216626737356,36.91053905016611,42.16528584846699,55.04019216122687,53.94102899532896,55.169782867536654,72.16732427963031,79.04839717455116,73.53997633815,76.97466762286574,75.50319856492169,57.252641477468984,45.401965530680016,38.403814286574715,15.375395077070502,-4.641861057707724,-5.239893351557597,-9.963183941855634,-21.294328446123043,-20.03073748445898,-21.1732196345315,-36.50086691226356,-42.24017474668577,-40.7055571787532,-57.63014993026772,-78.09677555869149,-82.74482724383356,-88.5664286875168,-92.02988172319331,-71.12497877712792,-45.72347224537698,-35.312221545452246,-17.537655704124706,9.171068000170418,22.065006377723524,34.08809412442734,58.26092024831461,71.89050286491128,76.22849280323487,94.53694764979593,111.44725557888464,111.52149416335597,118.07111575262843,132.77329369379947,132.47744075692827,127.95048990224487,130.72885587307047,119.57891521180552,98.91555934795193,94.66875689515396,92.02283570041031,74.06285770753502,61.72610977944921,54.694580301063326,31.109844712336884,6.7542013414100595,-2.942601774048189,-19.03502485993341,-39.271703922359386,-41.118506444311365,-41.96887323972311,-58.19732566347082,-65.52358387470046,-60.782212883927656,-64.54482773971542,-62.055292710906684,-40.88414943947444,-26.037229009411114,-17.60235117532902,6.994438371546358,31.528181442738305,39.98788873738755,54.284257201029014,74.13542645752744,77.44457879280182,79.51220927166162,94.9387482628164,100.91084948424589,96.85382071726983,103.62948690159601,105.60808662229044,89.39697231263014,79.46479936986339,76.64068384540877,57.39897222108816,34.638702309365016,23.266122542327516,4.026994822240976,-19.58550504872704,-24.962604010143853,-30.109074868847536,-52.48635077830747,-68.77489012422934,-76.51680620138903,-97.12271225791294,-116.31801731581551,-121.03613378279498,-134.70401134612771,-154.27687749903885,-152.74406390903874,-144.00417249369002,-145.20894166604737,-136.76155523803337,-120.89492250374897,-120.0623825491613,-116.69939265252276,-94.20907048254637,-76.86842246516676,-66.82716747875425,-41.7300083621507,-16.659689957782234,-8.152643112144068,4.2522780583304245,19.717735193655027,17.386536204983152,16.19724331450997,33.51982103310135,43.85802105625577,41.677760601001566,47.24110653516575,48.4203157214104,33.669108615036556,25.03310577638875,20.52713888421662,-2.424959646817144,-26.291439418352976,-32.02695123967274,-41.161148298549904,-56.87754310836412,-57.963463713207815,-56.812320335588694,-66.26313367152626,-64.16231749038971,-53.60570522557231,-61.806596716325856,-73.31444270095001,-65.85793948399619,-57.26661927323955,-49.22650353845049,-23.535344627833517,-0.2148639865765416,4.421175103296482,16.664215386018896,39.35803394099558,49.97624920077058,61.607597010019596,85.65506846168014,97.53240172360273,98.1459226875389,111.23178787866193,122.32217551718216,117.70882268759641,120.94440738317275,131.0041119073439,122.95751489396591,109.8506285197891,107.60240044778752,96.33436984106015,77.96320721643423,76.90584459732113,78.0074924412142,62.774923541209205,51.233060365240796,43.54041290115642,18.213090008276104,-6.97998776670539,-12.350578260797551,-17.84421045253019,-25.083877746017524,-14.397690342170133,-3.0665679769602177,-8.092659301437301,-7.134171340940983,1.2355904110579758,-4.998654251513158,-9.514538552429388,5.960934501997885,19.293238757280246,26.966730390091833,47.85957256875192,64.66882696701751,62.52698974109551,66.16444046872084,77.40071346401413,74.20826059523,70.50823101727721,80.19349379538534,81.00715243591884,72.510118980919,76.6374301972537,79.34104771221813,65.46247426365562,56.19699587189562,52.13156794514845,32.281838325954595,12.410151938214215,7.856165629851518,-4.783482282225272,-26.83836746507608,-34.568207940112885,-39.73182843015081,-55.70498307217375,-61.25762018161173,-58.69238772100417,-72.2107509513325,-86.62848811364084,-84.16263332198662,-85.17315236248635,-89.60167287084538,-74.03046226804614,-54.218520016819014,-49.57004411723131,-39.41325254313432,-22.49120104151958,-21.617493667047686,-21.27655549137473,-4.742316683463401,3.6476919675693718,1.4834814275142394,13.010057187491613,24.694729274695906,19.86101472338394,19.95696452015056,25.489406220647236,13.6327364174151,-1.7161800162171805,-4.850393454132892,-15.966306860085728,-34.25707236949505,-37.364977891922884,-40.42115598494668,-60.53717924389591,-76.20160725271691,-83.46805421818266,-101.22242568451354,-115.28610562887053,-113.31507044101734,-121.22333513031688,-140.2703272581379,-143.54412311653556,-141.4381916248299,-147.98385007955474,-140.2043160792137,-120.14682121219565,-115.30417946383413,-111.40474052856996,-89.68316684279773,-70.94708076456511,-57.51997363551537,-30.059141173546955,-5.506712988051727,-0.29341399068246266,10.243600325389451,30.89138900735738,37.1553604163388,37.633599803338306,47.863304953447596,50.120043342070346,44.662728962831125,51.60007288478733,54.205536736403175,36.353738146645384,23.341123211078493,20.901284278719903,7.826438592421917,-4.478119280685661,-3.7974756546038284,-12.589675794843698,-29.82011838372621,-34.22735511600007,-44.49548184702333,-75.63042715744584,-98.53554043901072,-105.53665321052821,-116.26122031536703,-119.55975704683836,-108.03463006254538,-108.74759428408385,-119.18654510390473,-110.02687373427268,-92.36633624175221,-83.9637670024152,-66.93552662991624,-42.45858625799106,-32.214379204072316,-20.71210484575016,6.521855842783299,23.99025942556225,29.19577289377321,46.9783027160018,64.97630091393822,66.30567725178928,71.60024462291334,82.61942045106179,80.42390619489345,83.6512287923243,106.32011813880763,116.41011308322534,103.91997617736814,91.6463968067881,73.36699636347942,43.04858381772344,27.62675017524358,24.522094810587525,4.181631674232609,-20.788685540601886,-30.41749759953513,-42.812452826188526,-58.81298147394867,-58.07924960396107,-56.28543198120063,-68.83246192426778,-72.1539310062438,-64.00848894885509,-68.09935162704333,-71.68587057282043,-58.32491398353829,-49.85231400435426,-48.91707269673592,-33.754871028906365,-17.19008913698807,-12.917047184255486,2.5567371194039845,29.498223309382112,41.7170957682868,50.98365724716441,73.17640391539291,85.42192709845887,85.02190010557369,94.24521476212223,100.17977005720414,89.4143618548395,86.1724135499124,91.81310834892511,81.88484241337528,68.82449752302375,68.63914059687197,59.69962266162173,40.623147118837494,34.378037993663455,26.780336703449535,1.4960421906998427,-17.42991296166623,-25.12171604394165,-41.825588292534356,-53.30882344756923,-46.72470911638413,-49.09096046059744,-63.114169250557396,-62.49704725852058,-57.66772723135533,-63.81276782531212,-59.7434332588723,-45.531180528858144,-43.4726146733018,-37.00192863951577,-10.726665752384108,8.028936458342898,14.851757923843682,34.268935953816786,54.76458961587773,61.107394628640634,72.98323485287187,87.13752201304686,80.16114795626304,71.12188749824392,81.26242531984688,88.92305578300756,87.76332863824186,94.65041339840124,94.80186567185041,76.91565420320725,68.65675407621217,73.48549974366776,65.12133931312647,50.88731017350507,44.09382318227626,25.494701305074308,-3.03042462123987,-16.263129578983524,-26.168469724057218,-48.56590006876388,-60.489439427320946,-59.079677523908444,-70.04017834037114,-84.35153713524345,-86.0032900698566,-91.66900333478809,-96.3824818371775,-76.0845880420562,-49.88131378009261,-38.940485671580454,-20.818055111338502,9.972774093334177,31.84552369008911,52.91293254162557,81.24921598508286,92.49664873918577,89.02368388843803,99.13688676568884,112.08684663565349,109.71693553906378,110.68305613902764,117.17353408114633,108.45708390359002,98.23141689314477,101.86596639827793,97.71021654195447,84.38800563533678,83.24610336030989,79.0386439705557,55.63983076432342,36.23671085542608,24.964639171121647,1.604623868636673,-20.88363631863876,-29.404706569689175,-46.173145523412366,-69.13670475210482,-71.20672437608202,-65.49581228013575,-72.05416912646957,-72.30990030742366,-64.74604252749472,-70.27473678878007,-72.97101531211078,-56.726807811546095,-44.78632439003161,-37.935682546890604,-11.977637135396701,18.51541928768691,33.208626363471105,47.806947814076196,61.22737942344229,55.13439361732847,50.0179320399445,64.45617122220311,74.16515022141985,73.08942173713132,79.03726051284565,77.18997427182792,57.08076815316441,46.35086533169591,46.5653455849142,32.7773094087693,16.585841392350147,12.483991510041115,0.6092325292316523,-16.967171801879747,-17.426106750844077,-17.166766257796816,-34.06187364690678,-45.03645656724025,-45.56390028526832,-56.43678965979387,-63.967346593644386,-53.399295815532575,-48.70114847039468,-53.40670301604605,-45.30823612503043,-37.257041694994115,-43.77736505223031,-40.54156289076485,-24.825270303280185,-20.58164749036921,-15.78724851555659,3.386265149009537,12.468763949196536,8.86670081470304,15.907289080893992,21.909400542943445,13.115138861620839,12.154163213823217,18.607699648305818,6.306839470609661,-10.860121003038007,-11.479635317548063,-12.467115247008868,-14.61564334794646,1.221120700318071,14.642385411944,4.670742653399521,-5.548396989330974,-9.66537214528395,-26.738565113294612,-42.99868125073429,-46.40098421279515,-64.59568459266313,-101.26447298745333,-127.44042383491416,-145.6949137515615,-164.9877183514639,-163.21183080981692,-143.880183878504,-136.5052873520798,-128.49323240208483,-98.88524250146803,-68.34223193086899,-44.48072772087538,-11.929031886619885,13.312216332557146,19.67874635028464,36.502966069211425,68.10188640352314,86.54274830656738,97.74287394247162,113.83369661682259,113.94657583099632,100.09367201590372,97.55407098238823,92.9122906702197,70.90990065588937,56.59297207021983,53.564954378279005,37.72423061623689,20.37325067855143,15.331961339375972,-0.7913369447707934,-27.728347239940103,-38.41938145503743,-43.90065355834852,-60.5176870033375,-67.435215172453,-64.369631330826,-75.06457981072134,-83.52048752856109,-69.45377043079395,-54.38983622437733,-44.05077309983081,-21.34231650398579,-3.5644772696178606,-5.294861485804802,0.8179883428749135,21.09847463559223,32.69831977781849,44.426750577207436,67.64837040592106,79.01220231004285,77.56551107628812,87.08500914200471,94.79548532887264,85.68952557198564,82.75862729067887,87.31201033675757,74.71120533042486,56.5041385541129,48.469533640948995,31.55043019180845,8.206904839130635,2.4269473391521994,-1.90883551011503,-23.61478580301248,-40.42169612332984,-48.222829891518245,-67.63022317907743,-83.44274297035436,-79.53013490182994,-80.44403628061568,-90.24066678120954,-86.11569659214567,-80.99742675520673,-89.95280195819247,-88.1871572796597,-71.9894266721458,-65.56195323235283,-56.98113214256506,-30.6126798805094,-10.627252188167489,-1.52238725311503,18.826050147013703,36.970777568059276,37.637303409829286,45.62512930447562,65.059281776237,72.73578500264605,80.12366029972134,100.51733097751442,108.16631586167013,98.12747890669708,93.12485375055032,83.16219126694327,56.96062976139142,39.87183436768397,34.59380021509019,16.45641500236662,-3.8208142714698567,-9.923517065148284,-21.999379200136215,-42.22042494049081,-48.83734833152853,-55.194615194186326,-76.37193899028577,-87.65365384275641,-84.47096119405602,-90.69530674126078,-96.85195223409073,-88.81732886394408,-87.16792313065396,-91.4511022890289,-77.06802109499773,-57.655859515098385,-51.76359252879486,-37.97799633320227,-11.976937004935897,4.619229712439779,23.067835327531576,55.214746855125654,74.8066094723828,78.98682729905978,93.43213622443511,106.87055373828812,101.83489151046021,98.42088567602553,98.78887698174513,81.69716640354557,62.599051553174135,59.60034804627585,50.52799145212454,31.846071956667068,26.226790575379617,20.595527185820536,-1.649787311609768,-17.46441420859494,-22.717578914947392,-40.8299104560912,-61.27892059934756,-68.73391570293225,-83.25628188554258,-103.55179781417297,-104.10966525737126,-99.92216997017748,-112.35975292422597,-120.48438178640924,-116.08401747899943,-115.17910125103072,-103.69752919952178,-70.67781142435507,-44.50024208301066,-29.375441545344323,0.2672636297465498,33.18180598672928,50.47899257572233,70.24652759241293,94.1305546680844,102.23237645867617,110.56207297698778,133.75888824198682,144.6861610834254,137.91219318067434,137.88673106038635,135.52524671996227,116.49086963020149,102.56764626756986,97.31566748114365,79.68067453863029,62.89726917875292,62.28052664479443,53.27196379046032,30.43642623818438,16.921414237514888,3.0325578587361317,-25.21426698845468,-45.05342037505742,-52.82112313951068,-70.17501673176683,-83.7884129967348,-78.24210924287817,-78.42444066119774,-88.97916864271403,-85.36042538491407,-77.40752250429436,-80.04003256853065,-71.73142331353131,-51.86034557639212,-45.37533309499285,-39.761488660926005,-17.80483005388315,-0.9609470404313183,8.105458350832858,31.621926138662403,55.29242191194041,60.07847423998862,64.52937782135218,70.43458789490063,58.69262605187991,47.58474591902556,56.6710428280506,63.23032894957617,61.004127937238536,69.41913172007966,74.48064413975531,61.178477986461374,53.46221551314463,53.24480722479989,35.54524997400523,14.238023669346145,8.619062404620967,-2.169338332794258,-21.631139073153545,-28.857569224546452,-37.49249855744226,-60.89357497439179,-71.50839070032805,-63.88471241902515,-64.8564703611506,-68.05413377588928,-58.61114731882828,-55.30444755025691,-57.13618232566545,-39.13529157953138,-15.983632134161178,-9.242539175983358,0.748053259610546,18.061814993119118,20.312186540379464,20.398059866927888,35.44471507148165,43.024336900701265,40.28463510676836,50.848219735248726,60.75427651288182,51.07676112950858,42.743292647034465,38.949448932155995,17.947225875301083,-5.201632509944493,-11.062660537992766,-20.354695656356085,-36.87445987890235,-38.41740023315008,-37.751080701974125,-52.25292918875056,-60.703064452029025,-60.60447460322095,-75.26846724702764,-89.6725218567422,-82.43931129943408,-73.76078705418385,-70.01551167180531,-53.32398676407102,-38.8389375748692,-41.54955947375258,-35.30927309562602,-14.826598204701623,-5.5514329500114155,1.862317780661605,24.1192710248264,39.618147350755166,43.42162415958357,56.402593581030104,64.8272471690483,52.91894707428183,45.901820418110425,48.90075345026454,38.53017766452396,27.09604950029694,32.134876550690855,32.63219878429903,24.350253213001803,27.107995037864743,26.448327445796792,6.200827306830644,-9.830254537749399,-16.254349203991893,-34.87975554221331,-53.16036357452608,-53.34198995838621,-55.96371911275012,-65.28060218611918,-60.486298563542576,-54.990500896085386,-65.77923095211601,-69.22570811401694,-58.35465494071371,-54.97171488455946,-48.5836557915852,-24.362386247049656,-6.395526384130456,0.9260122733997502,22.589626390086945,47.511533073050835,56.997523271162905,70.24141384195465,88.09591287405463,85.77556879488195,76.28148701580983,79.29214793000327,75.62631314558587,62.86608526946064,63.86435276679995,65.39488966705063,48.75099657689191,35.321262047777196,30.294266625773556,11.945966825250606,-7.47506025114904,-11.553969541343797,-22.85898404498207,-44.87360030081939,-52.9003770989204,-57.75873657892379,-77.07353334494898,-89.18171062319936,-89.14753823081148,-99.9695371268626,-110.54961190001653,-104.06117838998014,-101.70911390022815,-105.33084566404162,-88.58735516208844,-62.370602848376095,-47.29950564841906,-26.434383794213808,1.6085112514617634,13.920705406899046,23.785775659975197,48.352756883446744,64.37714832160549,67.31143956243714,81.09305573907598,95.2502252642035,93.63258311850768,97.47626458029106,107.8724029902828,98.49731716095873,81.11807028088089,75.79023828552698,64.36595076353066,45.887819259411145,43.736528281315955,42.48668270588078,21.42882711229875,2.80262444987158,-6.399416951510823,-26.608407851980107,-45.20571603968745,-46.85602497874486,-55.5335290755617,-74.85424718598044,-79.31156727942106,-78.58114796726004,-89.1507599177889,-90.27230107062682,-79.837259877188,-81.88004903034927,-83.17382921885135,-64.20937514827844,-46.01482590971802,-33.807603084996344,-7.272999144881009,18.40583847071562,24.584166144280083,33.76797237875279,50.921112281291364,52.87183922888907,51.16034757497118,64.06246381928624,71.98923601607883,72.75189509860591,89.56446767990349,107.47745252586407,104.37629374947815,99.47945024244494,97.94899138416208,79.43979925332732,58.78880950894414,55.287619932656625,46.808540435041095,28.13774996064013,22.942050730423443,20.25381212932013,2.1461187658514556,-11.074076111243578,-16.384535841715582,-36.30669986357293,-55.789678363220645,-54.056412710785565,-53.26279792734872,-61.283607207371304,-58.189857305570825,-56.5007254873056,-71.37648611501571,-76.8197539795645,-65.0545853601134,-58.60881281509036,-47.798095474248235,-18.929804484264547,1.8125667555176923,7.69653049150616,23.31169802850858,40.02411866166271,41.869573063737604,49.483102698038316,65.01439178794215,64.60728759188562,60.80799912980285,71.35821939376858,73.78914232481279,62.939617698293205,61.93608877219001,59.76318889470902,39.53904415541298,23.75525690952449,17.973881500911325,0.7405129358061187,-14.401375933345616,-9.971393510111977,-10.102610777449803,-21.900266399439353,-23.755247468319997,-27.527544072669006,-49.66086112245469,-66.73401361699246,-72.77523117201929,-89.89754074361929,-106.01911066282476,-102.7599979636214,-99.9609725640409,-100.96633882242487,-83.72041166869789,-62.98840408100007,-59.75119460558295,-53.044460196615475,-36.13451925310092,-29.84140856581136,-22.57597172188042,0.16787199959856203,12.873180580088016,10.244075415053517,17.984039003820847,27.308718285477994,21.325654309755787,20.618869275148313,28.592591670571803,21.558143567845157,11.383292683205557,17.098463847403337,17.565984648536705,6.54426429029688,6.272377287031209,5.905237118345954,-12.609122197054182,-27.668915258310953,-31.710550119224294,-44.80640147847264,-55.04477661628083,-46.650090537412346,-45.025875470257645,-57.85503267005537,-59.954567650084755,-57.027778150068954,-63.25362470196798,-58.16139084312391,-40.5659907355698,-36.46026506743518,-33.8659524789039,-11.811733930324568,9.27458616108947,21.907879176584238,45.64590943623069,67.18121650428301,68.8291128872677,73.26096850548245,86.714179360227,87.56927689408738,87.45238803237507,102.64968917904041,110.27638147832594,104.75234827218378,108.20482446394219,109.28204723856747,92.24645953376279,80.48072930082117,78.78448425969808,63.77768398215272,46.830694758663604,45.31735681811163,37.687198808137815,19.65556658617667,14.669024438134727,10.592489459544206,-11.566401637394172,-29.446344015337953,-35.55290924043764,-51.07210353670189,-63.7344615193446,-55.834238629298454,-50.9368706373681,-55.76576902528514,-46.458475070824385,-32.6193069728349,-31.1158598956936,-21.081014014039074,-1.0068670311125816,2.3351324903726565,0.4525942650243482,13.958121941620307,23.318920877475676,24.19527884841508,39.312672510998766,56.928975468259,58.94133575626934,65.56026914053024,79.2543292450001,74.46094769818313,62.292740163060806,63.69270017112489,59.87401091978907,44.845079208163625,39.540489702380654,33.245750655625315,10.700066500589752,-4.745978130488383,-7.7976087254277235,-22.843854488149738,-40.976920613934105,-45.18079968229746,-55.55663790248768,-75.5255251191105,-80.16997721018029,-78.64222302935308,-88.89377900960282,-91.33101329219599,-81.85188255551057,-83.32418662372314,-83.69235860732586,-64.05253840432486,-47.136652634646296,-41.95437607881486,-27.7971052948254,-14.121438362899118,-15.663514533788202,-8.865688766332582,12.594458254323673,24.455529081510903,33.24122639081275,52.34339595560933,58.834616178699065,48.70197106850986,48.31620025108522,50.64427224459136,39.624864433718066,35.512937675113264,41.128109489372065,31.220420415994127,16.20684120184444,15.812694544310748,10.579857303276263,-4.5253946744450255,-6.437921086881964,-6.644779283559518,-24.563987736072953,-38.15693559511783,-40.54768423374666,-56.17071487456509,-74.81403715442185,-75.24004215135679,-75.22936422299982,-78.88645129211505,-64.23911167849067,-46.28700152850339,-47.78850006597796,-47.704197293617824,-36.29211962677877,-33.43298106724638,-29.159104979371705,-7.8717511726677785,6.850129040699828,8.730714072611335,23.216984247523406,42.679864363131216,49.1487392043026,60.62204916019603,78.32551704074184,76.5062644886326,66.36044249931632,69.13454209210589,67.093509123475,56.484111853133086,60.179893786582284,66.28109833501462,55.2235328902276,46.69573049099574,45.049263086057394,26.610345341552087,-1.5935817521212803,-21.875223282361507,-33.400414037501285,-26.4201470848139,-2.326803670518416,18.685411104483318,29.936423472829944,29.247402212345587,13.622586919811262,-10.336020358709298,-34.957820785458814,-52.03074778111142,-52.363164278922554,-30.066328979069006,5.538798502736386,22.29976380793289,10.317302816241954,2.5854552580978725,10.37145246769463,12.693755106673954,13.691914493872561,20.6018422179404,11.57963069714313,-9.601703518167659,-14.302089194778716,-15.026257422529962,-31.6483233338555,-40.87864428988205,-35.82662330979033,-44.10951150564908,-60.22367103435565,-63.92736671646506,-70.79708364264903,-84.34821314164925,-82.07963569870577,-75.39439389511469,-83.51514033308607,-85.50537694254741,-75.07482066054315,-75.74193599145663,-77.24240829401673,-60.32272697319087,-45.2677543442151,-37.222240578818955,-13.329209031055997,12.642149333225492,17.767758332060556,21.402792143234077,32.12295298537138,31.845210220157522,33.65277705574459,53.448183363563224,65.03194332613518,58.86022259353375,58.647650716195564,58.117629472371064,42.17128346508923,32.667355792933876,35.635626312464034,26.54649392697693,12.908673200664417,12.13139095963135,3.9492596918990506,-16.784492940709708,-24.607026084573782,-27.574831785253227,-46.114119938004535,-62.6789113944896,-70.23605394247845,-87.44370746921017,-99.93900916347535,-87.34639195623156,-73.69371588688833,-71.63772205199108,-60.56815011042221,-47.53750667216411,-47.63179656475717,-39.33494967017959,-18.2300271346027,-9.075491757352781,-1.560618545999535,24.12859315380133,47.479157382897974,59.42119065255662,79.09122449840329,96.202630409027,94.69126183897154,96.21305115174054,105.58094023634206,98.37451461982234,84.89716130806228,85.53193559192911,81.66035768712524,67.40772399117388,65.00846783925826,64.98468853080037,49.7041311265226,39.6270544691549,39.77374109473787,24.986264954137532,4.750783294762563,0.44948695500590374,-6.832888704170582,-24.656459281138375,-30.266868202268938,-31.790143214393375,-46.02835169348232,-51.09751876398089,-41.41943738019823,-43.390726252984784,-49.57297558988981,-40.23384082782357,-33.97436362086105,-36.99201190729763,-26.75380177271389,-12.861678778463153,-13.095897391900035,-5.720136860236606,15.578120784723561,25.280035254604684,30.098169398123844,47.143871376553264,55.86198339879692,51.35173427826437,58.84570890705139,69.34115806719008,63.44818327391572,60.92769467220683,67.34524633241635,58.6710730650651,45.130205222195414,47.38894194384697,45.520283262868865,31.710989472884634,27.823598964792595,23.432311778916585,0.26704118740475025,-17.407780136346577,-19.38684089015205,-30.045125661677737,-42.90015012945281,-40.22470719676804,-42.35137840371181,-54.05922637103558,-49.39859059414735,-38.583218591170784,-44.348214285221644,-47.526422053504795,-39.547734256126674,-42.94927129202709,-48.77821699583566,-36.84718109492633,-25.491407219317967,-20.600920475082088,0.6257374121414108,26.66657724621779,34.75503001501995,42.78171926834464,58.53767449778137,61.38486621938679,61.120858734930565,75.12891850952866,82.28757116603695,75.48358128998905,77.36135009073612,79.35059752593753,64.2909155924639,54.925472773677406,60.86223656900565,59.342239867172424,56.50424476737902,67.04914495178215,67.17296473895709,48.98017222072441,38.55470195345634,30.643441646336658,7.752716501251438,-9.105012883585161,-11.733010023035018,-23.570509489498054,-37.12019831015417,-34.7072031588396,-37.809972305472066,-53.735938813376215,-56.71103348446487,-52.81400818852913,-61.27593614614729,-63.24308050329245,-52.54703622619172,-53.477513409099174,-57.056458380742626,-43.69602580289508,-34.46489625681944,-37.34141974195925,-29.031528894924335,-18.603799346951767,-25.27133753391522,-27.803954446674258,-17.388716970862962,-16.89177537860259,-19.00701456174489,-7.295064068939094,-4.279012964559539,-17.311621215791927,-20.890978619574213,-21.438698807524453,-37.60432144561369,-49.9717098587162,-51.37402875195507,-64.87993839472277,-82.25674846357744,-85.27106618515151,-95.11116147582564,-118.51187564306767,-127.63717716642628,-125.81875537260139,-131.50246608543344,-127.4718052516594,-109.69897722174215,-104.28090252027037,-102.66069251266028,-83.1973207304527,-65.41158772854459,-58.59942191210645,-40.33968699025374,-17.935054492050142,-9.037140865000302,6.08252335126913,32.39547243347792,44.01522694904652,48.18320454706334,64.22963922131119,73.13188733016494,67.83743868653137,71.07706954621118,75.27886256866194,63.9929303994538,58.2718577008586,63.75570741246171,54.88735704754471,39.07098807434005,36.59720688843077,30.13213697381957,13.65795559004311,9.813742149583335,8.562091337711518,-10.921171351124421,-28.27095142158269,-34.155418395214085,-51.40211436750093,-70.06737907965552,-66.74474838880604,-59.912966494592595,-59.226242227832316,-43.85409657476891,-26.08819971878733,-28.619830419318266,-29.27697049759673,-15.38588173874438,-8.379261425693162,-1.429307733873187,22.719523113745495,42.72317757425913,50.30811553546372,68.57011497496354,88.41360420203198,89.22776141156973,91.45050590785442,105.46477419730776,108.83659456670159,107.33601420837087,117.83321748140534,118.96954313878348,102.8456701545137,95.61346241519345,91.46809533897806,70.07400007319558,52.155857865435536,49.18940679578428,37.88332165814293,22.380180279822486,19.08629878303785,7.448103770631716,-18.36240124348531,-30.089235385680713,-32.906935919215954,-49.48312499560601,-64.37243474366744,-68.3279393878262,-79.08548665983858,-84.37934522666738,-64.54960579389743,-44.26034817861334,-38.63731918940503,-26.336053181314025,-10.614637478096183,-6.528439931336723,6.7448088701165,35.74657786479284,51.83026420772099,57.77431205941227,74.28390417842739,84.97738342719188,82.29877032640788,89.59457397087631,99.14772669743463,90.16144893657594,82.56208021461168,86.9366232513419,79.58790007724603,65.32640565734717,63.705114485642106,57.42642290452194,40.24839298883541,37.27209389069719,39.941221314123474,24.098289213402406,6.1376760072698655,-5.565753473155712,-31.735718068156814,-59.687409164434634,-65.86934991487654,-69.65813742492573,-80.85306481650952,-78.25624979096813,-71.5635956376748,-80.35545803683358,-82.44522601751287,-67.09509785560512,-57.9896098333826,-50.112153953485944,-26.056005200174127,-6.3827977097420865,0.8666286131334209,20.62491549497414,45.02546536454541,49.79726249564828,51.15428017408502,60.289615530355825,58.11990404003191,53.79978335218955,67.09148153561702,75.47839142415097,66.4557747765683,63.992935255523264,64.21427734609628,48.95180467114365,37.151627835043286,36.21868863257265,21.938948816368963,1.8903156229506486,-2.5178570693376825,-9.4610019557508,-28.028169567166806,-36.068526666151115,-41.72438911327269,-64.40704153417005,-82.1940485749311,-83.57260372414656,-91.1073255551054,-99.39980104250682,-91.10206404682273,-86.03931666103833,-91.43829549810704,-82.40849908577809,-66.22339430622392,-65.69213606694456,-63.79843889191356,-49.52765362812727,-42.36106957500298,-34.080572762742044,-7.161972789392031,14.371189492726907,19.551523100010883,36.264149092987985,63.511371939178964,81.31910019406524,103.53902898049017,132.57826049051098,140.65860772073873,135.5527555565555,142.11374883037448,144.07217229354416,131.67002947019145,127.51262613920645,125.45622938286193,104.95757991483293,84.15364970438355,73.44475532777851,51.45232736079345,25.825295681938183,16.673606474084394,2.215719818106076,-29.618809275987246,-52.06307196502668,-64.10004809332676,-81.59014038778876,-86.48726449496849,-74.82187586464121,-76.50456297138818,-86.21617025570322,-79.43588920588397,-72.79329440240818,-77.59356701330022,-72.02296971096513,-61.82090245310508,-66.13555275681428,-64.74414987931549,-47.34919737827318,-38.35882106169558,-32.94905179099131,-11.45741250221915,5.834870805526449,6.672385317327192,13.383234054984374,22.109408376511954,15.063398721258617,10.728226474107757,16.919845870428354,8.640845392785653,-8.536817682831256,-11.695788873124135,-16.068179303221083,-31.540646580149666,-37.05336334604631,-39.67373651089903,-60.32540347815929,-79.74157784549888,-86.38772162529216,-103.91325422898869,-127.09969401047144,-133.12570728360845,-137.2386027357433,-147.1583707461743,-140.2073468594215,-127.00113389762701,-132.68924829964473,-137.82044321494814,-127.23432950354847,-119.9098424147532,-109.85863615140543,-79.84710579263584,-52.154583849312544,-39.11035295259677,-18.624743799102525,2.808747694220557,4.533231551152887,6.836389296377571,23.263754415155127,32.40800537521126,37.95492354548482,56.74024369829906,68.3268794429136,63.17810754143848,65.80448003068963,70.68455564783808,56.51683132758117,41.95272065550709,38.447287120948864,23.79276136105885,4.40368442044201,1.4004097239125894,-4.165379468495197,-23.131112322846256,-32.37647537803646,-38.252664780592305,-62.02432970927757,-83.18199303542661,-87.35402681176099,-94.89315086408317,-100.1011051013806,-84.90146972185488,-71.87244272861199,-73.41756364560189,-63.42113817768147,-42.65337373305382,-30.889108081376303,-13.91886289510788,12.512452374098789,21.937160528779224,22.480403518463376,40.81214196779818,62.08212043916931,73.93727553678332,94.21532814542155,112.93830101836751,107.81857928645,98.84244862865194,99.79073439817844,90.03767495869988,76.49235566506542,79.8292588256715,80.06462082474233,65.64192160492146,59.27194133244441,54.97755087024099,32.75224302381765,13.34677555169285,9.374149783195524,-2.4394902644427727,-18.410967078285395,-19.58862611125793,-25.534556318980226,-46.24808405528389,-56.55053419011005,-60.92338304161995,-79.88845408598759,-92.63753088123414,-85.37448945428248,-81.18864145373469,-77.77688576431697,-58.593519593140144,-44.88387338619798,-45.22453039820667,-31.3706310151667,-7.0031650845949756,4.340165663579281,17.86092085700553,43.42173833593233,58.983221097687675,71.16718631248028,101.07957456812952,127.85468481695747,136.78786122636978,150.37382034659936,165.18908926730901,161.44340374952938,158.6593035376691,168.610765719351,166.9261755274137,155.5327363782743,151.52226125372096,134.88500359308657,96.55872033763421,64.7001640171822,40.49320852549859,6.432960710254662,-19.61891175716988,-27.47263126150986,-40.72326413177234,-54.50997936412999,-46.9604400926078,-37.34160446602273,-40.559865274792685,-36.003322275777634,-29.810624196243914,-43.32705096418353,-54.31733652324469,-45.70240699805561,-39.25098131101373,-32.80633756047891,-9.116948229491397,10.350047747955616,13.767463492240868,26.27662187949683,44.54411232789296,47.170007136634474,51.23024528157423,66.88122254779293,70.53332369400528,67.28386806792405,78.09781693043752,85.0145631524463,77.65895320676422,78.75786684073432,82.34585812498834,68.00499006973942,55.85568159085139,57.98502638456992,49.22827807081781,30.906671059589016,23.319900698331164,11.11894883064922,-13.715085586685959,-25.940921585854323,-30.255916306096744,-49.567485445522095,-65.74702209658025,-64.36559462030513,-67.2861909263041,-72.6622306644424,-63.03104168269361,-58.47570212746125,-69.23270863063557,-67.58828857295161,-54.75965643615065,-52.518984956131945,-44.75340535355628,-21.48633095580047,-7.23151031807754,1.6780759665495917,25.508878355425228,44.33739156656051,45.5949456336795,54.53281419055924,68.9202088641846,66.48755096805286,63.11650048249943,69.51252261482173,62.76512634426153,49.45693074900299,53.28731673876668,55.834698816144645,42.65269867231664,35.325066611997414,30.62285028145672,9.076957554775124,-10.22744036431602,-15.012087568865667,-29.31947350668599,-49.796767488919535,-54.126914286220575,-58.84914240726819,-75.37640519122671,-80.34385869781508,-77.5421569101007,-87.63848633792365,-92.11560228896438,-79.42992531016311,-74.95103714666286,-77.18950454150132,-65.30084607999243,-55.70091575415876,-58.21725690278134,-47.21656634649568,-25.679794615483324,-16.90748635283798,-6.49800599545559,14.973163473882837,22.955345472316868,21.30476117705854,33.1418494766631,43.14800508381565,40.15622175574982,46.567141267746265,57.40936049352757,49.66767713540399,39.53856312373663,40.28343818604835,31.394803332864964,17.539314546630948,20.09814979883992,21.317576804277422,7.335778697595399,-0.29423742622092325,-5.089318355006974,-27.87603687450751,-49.35556886302862,-54.35715448689605,-64.73205248309662,-78.06872095919435,-74.4453651360646,-71.14544713110064,-78.8183127274647,-73.45544807096647,-60.11029280283557,-63.65469307623597,-67.97661499336331,-57.81060175375947,-53.088686188377395,-50.62653846217272,-31.386575351864668,-15.271637139746016,-15.193550240892367,-5.66845443363386,11.7985068768232,14.207177654269787,16.73792839594324,31.542443718408443,36.42181141278715,35.87976105456174,51.58629639490463,64.6447983751424,61.500845272607265,65.34406156250974,72.03757255236235,58.3729621447124,42.38558914778836,40.557288288785934,33.54833925527009,25.046256133019803,32.831776381688265,32.72923855941326,8.128577076537372,-13.524014153088944,-26.49138965127713,-46.6364527948412,-56.40069232134481,-47.20934590778626,-48.06481693585593,-59.032366478712774,-57.07673877870305,-56.257936411068265,-66.74696235977964,-63.658702311875466,-49.905270056652185,-49.19788203673686,-45.96687982661176,-27.025309153313295,-14.893187208649618,-7.376851187491038,15.79681278525361,35.88382751372409,38.26769064998315,46.06301251690561,58.75525809686758,55.75189901945507,52.85148186969343,61.69733803126054,58.93811281376699,47.80896293278842,51.200143451292675,53.21551752047188,40.765864038961055,35.50463017478332,33.70128702672214,13.691596005963946,-6.6917713275208515,-12.931904995436746,-27.50718541929604,-48.621917180229595,-54.49137236587367,-60.566836496428074,-77.68564492135721,-80.57248252271188,-71.68316090648217,-75.82536527253724,-79.42742360751713,-69.6704291187337,-68.03340873634994,-71.2980662041349,-57.53126762425097,-43.933833891539635,-44.04855203054336,-33.02982011486558,-11.57221905301455,-3.495461182028938,5.073100732196361,26.534878211653325,38.02461430485879,42.01206131246401,60.1200593257979,74.25335324758822,69.19176491982263,68.5218818976996,74.06070591223411,66.72568672530278,61.86352434352192,70.6728453320284,68.560564330076,55.69472759215056,54.261633715777535,50.350925027778324,30.736248072295723,16.982886823743883,8.208225316623846,-15.497782168670629,-36.37264125413037,-39.71676383963942,-49.542342096109905,-67.58396317004876,-72.84825894925461,-77.60723723537141,-90.68862339820355,-88.02306295815022,-74.28673028545869,-76.3081140720656,-80.13251009529665,-68.7563409049436,-59.64798741465181,-50.463629654318346,-23.69054858155847,0.4990958998449617,8.073031271669862,24.6008852821756,51.693284045799835,66.40478279429611,79.86164664179341,102.54086372322115,111.60784064475195,108.58015645369508,115.01397695203902,115.05536407422065,95.18917450460076,79.94903573319208,71.76901167082815,50.617017545046366,31.6851112388321,28.26554500123002,17.26206998828498,-0.5886335978424801,-3.4568073071074017,-7.899821242581223,-28.476205046565635,-41.798989915948205,-48.112552733404826,-68.47897899232838,-85.54043779270425,-84.44329560848007,-88.4229086249992,-96.54043353420624,-85.36234810942315,-69.42323787782382,-63.67244753227,-48.2160315551407,-27.881782325234205,-28.017063611480992,-33.02693713821482,-24.86724534858643,-20.899405430287956,-17.612441325406884,5.567800608021111,29.59007131351501,36.86893155974332,47.707009137474614,61.10212186027147,56.96079412122944,53.35414982598026,65.57084851867286,70.6854208971459,68.45631373339899,78.11737585115165,80.5259227634434,61.46492903381579,47.808924023017006,42.48946850588889,23.70331771410062,6.282387154290234,4.634975937964498,-4.164180571932558,-19.265191953938956,-17.670041348918712,